#EXPORTTYPE:       ,DATA ALL                          
#FILE:             ,李院长 MgO-C C15-骨 C15-基 1400.ngb-dl9
#FORMAT:           ,NETZSCH5                          
#FTYPE:            ,ANSI                              
#IDENTITY:         ,C15-骨                             
#DECIMAL:          ,POINT                             
#SEPARATOR:        ,COMMA                             
#MTYPE:            ,DIL                               
#INSTRUMENT:       ,NETZSCH DIL 402SU                 
#PROJECT:          ,123                               
#DATE/TIME:        ,2025/6/5 17:20:27 (UTC+8)         
#CORR. FILE:       ,石墨炉 1400度-1.ngb-cl9               
#TEMPCAL:          ,TCALZERO.TMX                      
#LABORATORY:       ,wust                              
#OPERATOR:         ,                                  
#REMARK:           ,                                  
#SAMPLE:           ,镁碳                                
#SAMPLE LENGTH /mm:,25.96                             
#MATERIAL:         ,镁碳                                
#MEASMODE:         ,Standard Expansion                
#M.RANGE /μm:      ,50000                             
#CORR. CODE:       ,080                               
#RANGE:            ,25°C/5.0(K/min)/1403°C            
#SEGMENT:          ,S1/2                              
#SEG. 1:           ,25°C/5.0(K/min)/1403°C            
#Tref:             ,30.0°C                            

##Temp./°C,Time/min,dL/Lo,Gas Flow(protective)/(ml/min),m. CTE(1)/(1/K)
  50.00000,  4.67629,2.496846e-004,60.00000,1.023689e-005
  51.00000,  4.84124,2.553559e-004,60.00000,1.001482e-005
  52.00000,  5.00197,2.598803e-004,60.00000,9.761918e-006
  53.00000,  5.16198,2.629572e-004,60.00000,9.469295e-006
  54.00000,  5.32484,2.663562e-004,60.00000,9.215292e-006
  55.00000,  5.49393,2.694951e-004,60.00000,8.969719e-006
  56.00000,  5.67306,2.721088e-004,60.00000,8.725189e-006
  57.00000,  5.86570,2.769503e-004,60.00000,8.583831e-006
  58.00000,  6.07617,2.824864e-004,60.00000,8.474563e-006
  59.00000,  6.30755,2.899114e-004,60.00000,8.441813e-006
  60.00000,  6.55673,2.996389e-004,60.00000,8.485823e-006
  61.00000,  6.80861,3.099942e-004,60.00000,8.546133e-006
  62.00000,  7.04832,3.208188e-004,60.00000,8.618845e-006
  63.00000,  7.27003,3.318205e-004,60.00000,8.693538e-006
  64.00000,  7.47456,3.399821e-004,60.00000,8.677104e-006
  65.00000,  7.66487,3.475085e-004,60.00000,8.643149e-006
  66.00000,  7.84358,3.552261e-004,60.00000,8.618013e-006
  67.00000,  8.01381,3.605610e-004,60.00000,8.528248e-006
  68.00000,  8.17885,3.646720e-004,60.00000,8.411838e-006
  69.00000,  8.34235,3.691381e-004,60.00000,8.307640e-006
  70.00000,  8.50803,3.729269e-004,60.00000,8.193984e-006
  71.00000,  8.67981,3.767271e-004,60.00000,8.086290e-006
  72.00000,  8.86171,3.812932e-004,60.00000,8.000736e-006
  73.00000,  9.05776,3.863325e-004,60.00000,7.934390e-006
  74.00000,  9.27255,3.931199e-004,60.00000,7.907208e-006
  75.00000,  9.50758,4.013680e-004,60.00000,7.916527e-006
  76.00000,  9.75466,4.106831e-004,60.00000,7.947276e-006
  77.00000,  9.99973,4.216263e-004,60.00000,8.011877e-006
  78.00000, 10.23250,4.329287e-004,60.00000,8.081968e-006
  79.00000, 10.44943,4.425952e-004,60.00000,8.114241e-006
  80.00000, 10.65146,4.509704e-004,60.00000,8.119388e-006
  81.00000, 10.84116,4.590463e-004,60.00000,8.117792e-006
  82.00000, 11.02082,4.652618e-004,60.00000,8.081561e-006
  83.00000, 11.19369,4.712328e-004,60.00000,8.041552e-006
  84.00000, 11.36279,4.761374e-004,60.00000,7.982209e-006
  85.00000, 11.53138,4.803050e-004,60.00000,7.912333e-006
  86.00000, 11.70332,4.848767e-004,60.00000,7.852133e-006
  87.00000, 11.88285,4.900666e-004,60.00000,7.804997e-006
  88.00000, 12.07337,4.957471e-004,60.00000,7.768951e-006
  89.00000, 12.27876,5.026466e-004,60.00000,7.753469e-006
  90.00000, 12.50203,5.109574e-004,60.00000,7.763432e-006
  91.00000, 12.73997,5.211051e-004,60.00000,7.803604e-006
  92.00000, 12.98162,5.305129e-004,60.00000,7.830204e-006
  93.00000, 13.21666,5.422607e-004,60.00000,7.892012e-006
  94.00000, 13.43971,5.517337e-004,60.00000,7.917301e-006
  95.00000, 13.64921,5.613052e-004,60.00000,7.942976e-006
  96.00000, 13.84744,5.693504e-004,60.00000,7.944815e-006
  97.00000, 14.03636,5.763353e-004,60.00000,7.929747e-006
  98.00000, 14.21727,5.825460e-004,60.00000,7.904909e-006
  99.00000, 14.39281,5.879622e-004,60.00000,7.868487e-006
 100.00000, 14.56579,5.935331e-004,60.00000,7.834869e-006
 101.00000, 14.73960,5.981472e-004,60.00000,7.789082e-006
 102.00000, 14.91782,6.033351e-004,60.00000,7.752927e-006
 103.00000, 15.10421,6.087292e-004,60.00000,7.719797e-006
 104.00000, 15.30147,6.140978e-004,60.00000,7.688180e-006
 105.00000, 15.51311,6.224978e-004,60.00000,7.697619e-006
 106.00000, 15.73972,6.315471e-004,60.00000,7.715955e-006
 107.00000, 15.97439,6.415998e-004,60.00000,7.747144e-006
 108.00000, 16.20790,6.519811e-004,60.00000,7.780615e-006
 109.00000, 16.43572,6.611346e-004,60.00000,7.798963e-006
 110.00000, 16.65413,6.706246e-004,60.00000,7.819658e-006
 111.00000, 16.86211,6.791891e-004,60.00000,7.828807e-006
 112.00000, 17.06100,6.870262e-004,60.00000,7.829556e-006
 113.00000, 17.25210,6.944354e-004,60.00000,7.823882e-006
 114.00000, 17.43731,7.005933e-004,60.00000,7.804291e-006
 115.00000, 17.61848,7.065447e-004,60.00000,7.782415e-006
 116.00000, 17.79684,7.122904e-004,60.00000,7.758272e-006
 117.00000, 17.97505,7.180961e-004,60.00000,7.735623e-006
 118.00000, 18.15608,7.242033e-004,60.00000,7.716457e-006
 119.00000, 18.34239,7.304772e-004,60.00000,7.700680e-006
 120.00000, 18.53695,7.376378e-004,60.00000,7.693932e-006
 121.00000, 18.74081,7.448497e-004,60.00000,7.689392e-006
 122.00000, 18.95404,7.531832e-004,60.00000,7.696490e-006
 123.00000, 19.17423,7.622427e-004,60.00000,7.711416e-006
 124.00000, 19.39697,7.713705e-004,60.00000,7.726400e-006
 125.00000, 19.61870,7.795465e-004,60.00000,7.731283e-006
 126.00000, 19.83604,7.881839e-004,60.00000,7.740700e-006
 127.00000, 20.04769,7.956798e-004,60.00000,7.738412e-006
 128.00000, 20.25404,8.041177e-004,60.00000,7.745835e-006
 129.00000, 20.45514,8.123509e-004,60.00000,7.750375e-006
 130.00000, 20.65146,8.193807e-004,60.00000,7.743573e-006
 131.00000, 20.84419,8.256321e-004,60.00000,7.728487e-006
 132.00000, 21.03433,8.323630e-004,60.00000,7.718363e-006
 133.00000, 21.22272,8.390371e-004,60.00000,7.708302e-006
 134.00000, 21.41028,8.457701e-004,60.00000,7.699074e-006
 135.00000, 21.59859,8.517251e-004,60.00000,7.682538e-006
 136.00000, 21.78865,8.583618e-004,60.00000,7.672084e-006
 137.00000, 21.98101,8.654297e-004,60.00000,7.666393e-006
 138.00000, 22.17657,8.720464e-004,60.00000,7.657039e-006
 139.00000, 22.37655,8.790937e-004,60.00000,7.651253e-006
 140.00000, 22.58108,8.870104e-004,60.00000,7.653623e-006
 141.00000, 22.78956,8.950024e-004,60.00000,7.656870e-006
 142.00000, 23.00169,9.025396e-004,60.00000,7.656156e-006
 143.00000, 23.21700,9.114869e-004,60.00000,7.667087e-006
 144.00000, 23.43484,9.194014e-004,60.00000,7.669349e-006
 145.00000, 23.65370,9.278854e-004,60.00000,7.676617e-006
 146.00000, 23.87235,9.363409e-004,60.00000,7.683207e-006
 147.00000, 24.09081,9.441358e-004,60.00000,7.684001e-006
 148.00000, 24.30753,9.521940e-004,60.00000,7.687572e-006
 149.00000, 24.52114,9.599075e-004,60.00000,7.687972e-006
 150.00000, 24.73127,9.677839e-004,60.00000,7.689409e-006
 151.00000, 24.93806,9.744332e-004,60.00000,7.680732e-006
 152.00000, 25.14223,9.818044e-004,60.00000,7.678701e-006
 153.00000, 25.34330,9.885555e-004,60.00000,7.671100e-006
 154.00000, 25.54219,9.959637e-004,60.00000,7.668350e-006
 155.00000, 25.73964,1.003252e-003,60.00000,7.665639e-006
 156.00000, 25.93594,1.010750e-003,60.00000,7.664189e-006
 157.00000, 26.13184,1.017756e-003,60.00000,7.658755e-006
 158.00000, 26.32778,1.025731e-003,60.00000,7.661355e-006
 159.00000, 26.52437,1.032574e-003,60.00000,7.655035e-006
 160.00000, 26.72207,1.039978e-003,60.00000,7.652770e-006
 161.00000, 26.92114,1.047360e-003,60.00000,7.651155e-006
 162.00000, 27.12273,1.055342e-003,60.00000,7.653512e-006
 163.00000, 27.32654,1.063330e-003,60.00000,7.655968e-006
 164.00000, 27.53199,1.071197e-003,60.00000,7.657501e-006
 165.00000, 27.73911,1.079547e-003,60.00000,7.662769e-006
 166.00000, 27.94801,1.087757e-003,60.00000,7.666774e-006
 167.00000, 28.15795,1.096109e-003,60.00000,7.671614e-006
 168.00000, 28.36844,1.103910e-003,60.00000,7.672551e-006
 169.00000, 28.57914,1.111797e-003,60.00000,7.674180e-006
 170.00000, 28.78940,1.120206e-003,60.00000,7.679386e-006
 171.00000, 28.99869,1.128157e-003,60.00000,7.681403e-006
 172.00000, 29.20694,1.135832e-003,60.00000,7.681709e-006
 173.00000, 29.41401,1.143734e-003,60.00000,7.682861e-006
 174.00000, 29.61896,1.151105e-003,60.00000,7.680704e-006
 175.00000, 29.82258,1.158679e-003,60.00000,7.680075e-006
 176.00000, 30.02516,1.166111e-003,60.00000,7.678445e-006
 177.00000, 30.22632,1.173960e-003,60.00000,7.679256e-006
 178.00000, 30.42635,1.181920e-003,60.00000,7.681411e-006
 179.00000, 30.62582,1.189704e-003,60.00000,7.681933e-006
 180.00000, 30.82488,1.197573e-003,60.00000,7.683386e-006
 181.00000, 31.02404,1.205676e-003,60.00000,7.685871e-006
 182.00000, 31.22355,1.213186e-003,60.00000,7.685008e-006
 183.00000, 31.42369,1.221625e-003,60.00000,7.690046e-006
 184.00000, 31.62438,1.229987e-003,60.00000,7.694280e-006
 185.00000, 31.82513,1.238234e-003,60.00000,7.697728e-006
 186.00000, 32.02602,1.246569e-003,60.00000,7.701952e-006
 187.00000, 32.22751,1.255029e-003,60.00000,7.706713e-006
 188.00000, 32.42996,1.263404e-003,60.00000,7.710837e-006
 189.00000, 32.63317,1.271610e-003,60.00000,7.714083e-006
 190.00000, 32.83728,1.280201e-003,60.00000,7.719529e-006
 191.00000, 33.04219,1.288921e-003,60.00000,7.725891e-006
 192.00000, 33.24681,1.297258e-003,60.00000,7.729524e-006
 193.00000, 33.45116,1.305567e-003,60.00000,7.733021e-006
 194.00000, 33.65542,1.314189e-003,60.00000,7.738618e-006
 195.00000, 33.85927,1.322535e-003,60.00000,7.742175e-006
 196.00000, 34.06273,1.331144e-003,60.00000,7.747445e-006
 197.00000, 34.26569,1.339196e-003,60.00000,7.749251e-006
 198.00000, 34.46832,1.347104e-003,60.00000,7.750213e-006
 199.00000, 34.67077,1.355345e-003,60.00000,7.753089e-006
 200.00000, 34.87252,1.362992e-003,60.00000,7.752694e-006
 201.00000, 35.07433,1.371093e-003,60.00000,7.754680e-006
 202.00000, 35.27544,1.379567e-003,60.00000,7.758810e-006
 203.00000, 35.47573,1.387865e-003,60.00000,7.761835e-006
 204.00000, 35.67622,1.396048e-003,60.00000,7.764328e-006
 205.00000, 35.87644,1.404372e-003,60.00000,7.767381e-006
 206.00000, 36.07647,1.412460e-003,60.00000,7.769079e-006
 207.00000, 36.27668,1.420165e-003,60.00000,7.768953e-006
 208.00000, 36.47689,1.428114e-003,60.00000,7.769805e-006
 209.00000, 36.67702,1.436358e-003,60.00000,7.772284e-006
 210.00000, 36.87689,1.443705e-003,60.00000,7.770253e-006
 211.00000, 37.07646,1.451603e-003,60.00000,7.770802e-006
 212.00000, 37.27579,1.459442e-003,60.00000,7.771293e-006
 213.00000, 37.47496,1.467674e-003,60.00000,7.773622e-006
 214.00000, 37.67410,1.475710e-003,60.00000,7.775185e-006
 215.00000, 37.87301,1.483620e-003,60.00000,7.776034e-006
 216.00000, 38.07124,1.491383e-003,60.00000,7.775896e-006
 217.00000, 38.26936,1.499239e-003,60.00000,7.776176e-006
 218.00000, 38.46737,1.507965e-003,60.00000,7.781382e-006
 219.00000, 38.66466,1.516170e-003,60.00000,7.783598e-006
 220.00000, 38.86168,1.524421e-003,60.00000,7.786002e-006
 221.00000, 39.05861,1.532482e-003,60.00000,7.787485e-006
 222.00000, 39.25547,1.540529e-003,60.00000,7.788849e-006
 223.00000, 39.45228,1.549347e-003,60.00000,7.794235e-006
 224.00000, 39.64928,1.557295e-003,60.00000,7.794866e-006
 225.00000, 39.84657,1.565819e-003,60.00000,7.798665e-006
 226.00000, 40.04442,1.574917e-003,60.00000,7.805262e-006
 227.00000, 40.24251,1.584227e-003,60.00000,7.813013e-006
 228.00000, 40.44090,1.592820e-003,60.00000,7.816755e-006
 229.00000, 40.63944,1.601422e-003,60.00000,7.820898e-006
 230.00000, 40.83796,1.610557e-003,60.00000,7.827314e-006
 231.00000, 41.03677,1.619536e-003,60.00000,7.832982e-006
 232.00000, 41.23555,1.628069e-003,60.00000,7.836668e-006
 233.00000, 41.43438,1.637384e-003,60.00000,7.843651e-006
 234.00000, 41.63318,1.645777e-003,60.00000,7.846730e-006
 235.00000, 41.83193,1.654430e-003,60.00000,7.850571e-006
 236.00000, 42.03036,1.662281e-003,60.00000,7.850432e-006
 237.00000, 42.22850,1.671071e-003,60.00000,7.854797e-006
 238.00000, 42.42640,1.678883e-003,60.00000,7.854667e-006
 239.00000, 42.62399,1.686910e-003,60.00000,7.855796e-006
 240.00000, 42.82164,1.694748e-003,60.00000,7.855656e-006
 241.00000, 43.01903,1.702878e-003,60.00000,7.856922e-006
 242.00000, 43.21585,1.711073e-003,60.00000,7.858395e-006
 243.00000, 43.41244,1.719164e-003,60.00000,7.859614e-006
 244.00000, 43.60917,1.727230e-003,60.00000,7.860519e-006
 245.00000, 43.80598,1.735336e-003,60.00000,7.861723e-006
 246.00000, 44.00267,1.743226e-003,60.00000,7.861633e-006
 247.00000, 44.19966,1.751710e-003,60.00000,7.864659e-006
 248.00000, 44.39716,1.759734e-003,60.00000,7.865473e-006
 249.00000, 44.59460,1.768299e-003,60.00000,7.868500e-006
 250.00000, 44.79244,1.776100e-003,60.00000,7.868313e-006
 251.00000, 44.99076,1.785004e-003,60.00000,7.872941e-006
 252.00000, 45.18945,1.793216e-003,60.00000,7.874426e-006
 253.00000, 45.38889,1.802226e-003,60.00000,7.879596e-006
 254.00000, 45.58909,1.810417e-003,60.00000,7.881062e-006
 255.00000, 45.78957,1.819526e-003,60.00000,7.886544e-006
 256.00000, 45.98995,1.827518e-003,60.00000,7.886865e-006
 257.00000, 46.19035,1.836091e-003,60.00000,7.889933e-006
 258.00000, 46.39084,1.844708e-003,60.00000,7.893110e-006
 259.00000, 46.59112,1.853149e-003,60.00000,7.895487e-006
 260.00000, 46.79151,1.861868e-003,60.00000,7.899036e-006
 261.00000, 46.99222,1.870390e-003,60.00000,7.901653e-006
 262.00000, 47.19323,1.879271e-003,60.00000,7.905942e-006
 263.00000, 47.39500,1.888099e-003,60.00000,7.909818e-006
 264.00000, 47.59718,1.897008e-003,60.00000,7.914260e-006
 265.00000, 47.79975,1.905636e-003,60.00000,7.917354e-006
 266.00000, 48.00308,1.914333e-003,60.00000,7.920639e-006
 267.00000, 48.20670,1.922922e-003,60.00000,7.923290e-006
 268.00000, 48.41027,1.931127e-003,60.00000,7.924572e-006
 269.00000, 48.61410,1.940727e-003,60.00000,7.931545e-006
 270.00000, 48.81806,1.948878e-003,60.00000,7.932508e-006
 271.00000, 49.02201,1.957456e-003,60.00000,7.935092e-006
 272.00000, 49.22586,1.965836e-003,60.00000,7.936925e-006
 273.00000, 49.42929,1.974277e-003,60.00000,7.939165e-006
 274.00000, 49.63219,1.982219e-003,60.00000,7.939112e-006
 275.00000, 49.83477,1.990790e-003,60.00000,7.941648e-006
 276.00000, 50.03657,1.999700e-003,60.00000,7.945592e-006
 277.00000, 50.23802,2.008421e-003,60.00000,7.948667e-006
 278.00000, 50.43994,2.016611e-003,60.00000,7.949746e-006
 279.00000, 50.64148,2.026427e-003,60.00000,7.957302e-006
 280.00000, 50.84262,2.034803e-003,60.00000,7.958851e-006
 281.00000, 51.04422,2.043048e-003,60.00000,7.959941e-006
 282.00000, 51.24548,2.051388e-003,60.00000,7.961679e-006
 283.00000, 51.44636,2.059989e-003,60.00000,7.964104e-006
 284.00000, 51.64745,2.068401e-003,60.00000,7.965889e-006
 285.00000, 51.84866,2.077143e-003,60.00000,7.968983e-006
 286.00000, 52.05015,2.085667e-003,60.00000,7.971029e-006
 287.00000, 52.25182,2.094573e-003,60.00000,7.974767e-006
 288.00000, 52.45426,2.103397e-003,60.00000,7.978103e-006
 289.00000, 52.65718,2.111566e-003,60.00000,7.978822e-006
 290.00000, 52.86068,2.120673e-003,60.00000,7.983031e-006
 291.00000, 53.06524,2.129656e-003,60.00000,7.986869e-006
 292.00000, 53.26958,2.138680e-003,60.00000,7.990962e-006
 293.00000, 53.47410,2.147199e-003,60.00000,7.992810e-006
 294.00000, 53.67941,2.155823e-003,60.00000,7.995147e-006
 295.00000, 53.88519,2.164053e-003,60.00000,7.996274e-006
 296.00000, 54.10037,2.172755e-003,60.00000,7.997121e-006
 297.00000, 54.32002,2.180381e-003,60.00000,7.997901e-006
 298.00000, 54.52588,2.188753e-003,60.00000,7.998853e-006
 299.00000, 54.72632,2.196811e-003,60.00000,7.998968e-006
 300.00000, 54.92554,2.204938e-003,60.00000,7.999561e-006
 301.00000, 55.12323,2.212970e-003,60.00000,7.999784e-006
 302.00000, 55.32020,2.221177e-003,60.00000,8.000366e-006
 303.00000, 55.51673,2.229498e-003,60.00000,8.001680e-006
 304.00000, 55.71304,2.237405e-003,60.00000,8.001063e-006
 305.00000, 55.90944,2.245646e-003,60.00000,8.002054e-006
 306.00000, 56.10641,2.253820e-003,60.00000,8.002645e-006
 307.00000, 56.30388,2.262057e-003,60.00000,8.003632e-006
 308.00000, 56.50262,2.270393e-003,60.00000,8.004679e-006
 309.00000, 56.70260,2.278906e-003,60.00000,8.006474e-006
 310.00000, 56.90340,2.286778e-003,60.00000,8.006146e-006
 311.00000, 57.10522,2.295875e-003,60.00000,8.009912e-006
 312.00000, 57.30757,2.304047e-003,60.00000,8.010711e-006
 313.00000, 57.51045,2.312520e-003,60.00000,8.011995e-006
 314.00000, 57.71342,2.320898e-003,60.00000,8.013496e-006
 315.00000, 57.91686,2.329853e-003,60.00000,8.016691e-006
 316.00000, 58.11968,2.337570e-003,60.00000,8.015729e-006
 317.00000, 58.32102,2.346172e-003,60.00000,8.017751e-006
 318.00000, 58.52182,2.354485e-003,60.00000,8.018801e-006
 319.00000, 58.72207,2.362972e-003,60.00000,8.020383e-006
 320.00000, 58.92226,2.371448e-003,60.00000,8.022075e-006
 321.00000, 59.12298,2.379850e-003,60.00000,8.023255e-006
 322.00000, 59.32320,2.388268e-003,60.00000,8.024724e-006
 323.00000, 59.52311,2.396940e-003,60.00000,8.026694e-006
 324.00000, 59.72352,2.405101e-003,60.00000,8.027349e-006
 325.00000, 59.92463,2.413225e-003,60.00000,8.027522e-006
 326.00000, 60.12620,2.421976e-003,60.00000,8.030094e-006
 327.00000, 60.32860,2.430663e-003,60.00000,8.032222e-006
 328.00000, 60.53126,2.439986e-003,60.00000,8.036588e-006
 329.00000, 60.73393,2.448732e-003,60.00000,8.038873e-006
 330.00000, 60.93677,2.457354e-003,60.00000,8.040821e-006
 331.00000, 61.13961,2.465841e-003,60.00000,8.042332e-006
 332.00000, 61.34282,2.474429e-003,60.00000,8.044177e-006
 333.00000, 61.54621,2.482542e-003,60.00000,8.044447e-006
 334.00000, 61.74954,2.491409e-003,60.00000,8.047065e-006
 335.00000, 61.95271,2.499191e-003,60.00000,8.046304e-006
 336.00000, 62.15600,2.507405e-003,60.00000,8.046781e-006
 337.00000, 62.35958,2.515690e-003,60.00000,8.047551e-006
 338.00000, 62.56355,2.524250e-003,60.00000,8.049260e-006
 339.00000, 62.76764,2.532406e-003,60.00000,8.049651e-006
 340.00000, 62.97160,2.540382e-003,60.00000,8.049350e-006
 341.00000, 63.17581,2.548417e-003,60.00000,8.049330e-006
 342.00000, 63.38009,2.556548e-003,60.00000,8.049585e-006
 343.00000, 63.58487,2.564290e-003,60.00000,8.048711e-006
 344.00000, 63.79005,2.572191e-003,60.00000,8.048153e-006
 345.00000, 63.99541,2.580282e-003,60.00000,8.048221e-006
 346.00000, 64.20080,2.588434e-003,60.00000,8.048726e-006
 347.00000, 64.40585,2.596122e-003,60.00000,8.047545e-006
 348.00000, 64.61050,2.604149e-003,60.00000,8.047374e-006
 349.00000, 64.81484,2.611896e-003,60.00000,8.046452e-006
 350.00000, 65.01890,2.619541e-003,60.00000,8.045172e-006
 351.00000, 65.22255,2.627302e-003,60.00000,8.044348e-006
 352.00000, 65.42609,2.634860e-003,60.00000,8.042774e-006
 353.00000, 65.62952,2.643303e-003,60.00000,8.043918e-006
 354.00000, 65.83269,2.651730e-003,60.00000,8.045188e-006
 355.00000, 66.03631,2.659818e-003,60.00000,8.045450e-006
 356.00000, 66.24064,2.668331e-003,60.00000,8.046787e-006
 357.00000, 66.44541,2.676491e-003,60.00000,8.047121e-006
 358.00000, 66.65126,2.685515e-003,60.00000,8.050085e-006
 359.00000, 66.85802,2.693744e-003,60.00000,8.050585e-006
 360.00000, 67.06540,2.702470e-003,60.00000,8.052634e-006
 361.00000, 67.27337,2.711109e-003,60.00000,8.054509e-006
 362.00000, 67.48135,2.719578e-003,60.00000,8.055726e-006
 363.00000, 67.68845,2.727990e-003,60.00000,8.056813e-006
 364.00000, 67.89446,2.736271e-003,60.00000,8.057533e-006
 365.00000, 68.09975,2.744721e-003,60.00000,8.058714e-006
 366.00000, 68.30410,2.753274e-003,60.00000,8.060128e-006
 367.00000, 68.50766,2.761669e-003,60.00000,8.061084e-006
 368.00000, 68.71107,2.770462e-003,60.00000,8.063167e-006
 369.00000, 68.91505,2.778956e-003,60.00000,8.064629e-006
 370.00000, 69.11953,2.787263e-003,60.00000,8.065286e-006
 371.00000, 69.32450,2.795779e-003,60.00000,8.066521e-006
 372.00000, 69.53062,2.805286e-003,60.00000,8.070722e-006
 373.00000, 69.73723,2.813753e-003,60.00000,8.071879e-006
 374.00000, 69.94366,2.822341e-003,60.00000,8.073471e-006
 375.00000, 70.14966,2.830429e-003,60.00000,8.073492e-006
 376.00000, 70.35514,2.838583e-003,60.00000,8.073783e-006
 377.00000, 70.56007,2.846602e-003,60.00000,8.073576e-006
 378.00000, 70.76426,2.855103e-003,60.00000,8.074813e-006
 379.00000, 70.96738,2.862943e-003,60.00000,8.074168e-006
 380.00000, 71.16926,2.871350e-003,60.00000,8.075062e-006
 381.00000, 71.37049,2.878911e-003,60.00000,8.073627e-006
 382.00000, 71.57153,2.886716e-003,60.00000,8.072796e-006
 383.00000, 71.77231,2.894699e-003,60.00000,8.072565e-006
 384.00000, 71.97315,2.902988e-003,60.00000,8.073193e-006
 385.00000, 72.17445,2.910823e-003,60.00000,8.072446e-006
 386.00000, 72.37589,2.919500e-003,60.00000,8.074209e-006
 387.00000, 72.57775,2.927179e-003,60.00000,8.073072e-006
 388.00000, 72.78014,2.935394e-003,60.00000,8.073538e-006
 389.00000, 72.98317,2.943385e-003,60.00000,8.073199e-006
 390.00000, 73.18674,2.951540e-003,60.00000,8.073502e-006
 391.00000, 73.39042,2.959985e-003,60.00000,8.074592e-006
 392.00000, 73.59410,2.967979e-003,60.00000,8.074361e-006
 393.00000, 73.79715,2.976068e-003,60.00000,8.074450e-006
 394.00000, 73.99975,2.984052e-003,60.00000,8.074091e-006
 395.00000, 74.20182,2.991989e-003,60.00000,8.073641e-006
 396.00000, 74.40374,2.999922e-003,60.00000,8.073341e-006
 397.00000, 74.60612,3.007950e-003,60.00000,8.073227e-006
 398.00000, 74.80857,3.015902e-003,60.00000,8.072870e-006
 399.00000, 75.01111,3.023937e-003,60.00000,8.072825e-006
 400.00000, 75.21377,3.032018e-003,60.00000,8.072835e-006
 401.00000, 75.41628,3.040633e-003,60.00000,8.074255e-006
 402.00000, 75.61835,3.048548e-003,60.00000,8.073855e-006
 403.00000, 75.82059,3.056550e-003,60.00000,8.073628e-006
 404.00000, 76.02320,3.064319e-003,60.00000,8.072806e-006
 405.00000, 76.22625,3.072810e-003,60.00000,8.073850e-006
 406.00000, 76.42969,3.080939e-003,60.00000,8.074160e-006
 407.00000, 76.63317,3.088957e-003,60.00000,8.073886e-006
 408.00000, 76.83693,3.096883e-003,60.00000,8.073607e-006
 409.00000, 77.04109,3.104714e-003,60.00000,8.072953e-006
 410.00000, 77.24561,3.112782e-003,60.00000,8.072881e-006
 411.00000, 77.45044,3.121441e-003,60.00000,8.074420e-006
 412.00000, 77.65566,3.129513e-003,60.00000,8.074403e-006
 413.00000, 77.86102,3.137718e-003,60.00000,8.074835e-006
 414.00000, 78.06590,3.146507e-003,60.00000,8.076660e-006
 415.00000, 78.27068,3.154416e-003,60.00000,8.076216e-006
 416.00000, 78.47551,3.162802e-003,60.00000,8.076980e-006
 417.00000, 78.67987,3.171022e-003,60.00000,8.077371e-006
 418.00000, 78.88343,3.178540e-003,60.00000,8.075938e-006
 419.00000, 79.08608,3.186421e-003,60.00000,8.075444e-006
 420.00000, 79.28828,3.194538e-003,60.00000,8.075584e-006
 421.00000, 79.49005,3.202541e-003,60.00000,8.075363e-006
 422.00000, 79.69124,3.210774e-003,60.00000,8.075772e-006
 423.00000, 79.89265,3.218406e-003,60.00000,8.074620e-006
 424.00000, 80.09476,3.226908e-003,60.00000,8.075608e-006
 425.00000, 80.29753,3.234969e-003,60.00000,8.075728e-006
 426.00000, 80.50106,3.243319e-003,60.00000,8.076269e-006
 427.00000, 80.70555,3.251278e-003,60.00000,8.076208e-006
 428.00000, 80.91092,3.259507e-003,60.00000,8.076403e-006
 429.00000, 81.11726,3.267705e-003,60.00000,8.076740e-006
 430.00000, 81.32386,3.275849e-003,60.00000,8.076942e-006
 431.00000, 81.53024,3.284465e-003,60.00000,8.078324e-006
 432.00000, 81.73671,3.292816e-003,60.00000,8.078958e-006
 433.00000, 81.94286,3.300611e-003,60.00000,8.078273e-006
 434.00000, 82.14865,3.308869e-003,60.00000,8.078611e-006
 435.00000, 82.35407,3.316794e-003,60.00000,8.078332e-006
 436.00000, 82.55902,3.324751e-003,60.00000,8.077976e-006
 437.00000, 82.76372,3.332450e-003,60.00000,8.077061e-006
 438.00000, 82.96884,3.340868e-003,60.00000,8.077863e-006
 439.00000, 83.17439,3.348813e-003,60.00000,8.077602e-006
 440.00000, 83.38016,3.356708e-003,60.00000,8.077151e-006
 441.00000, 83.58648,3.365062e-003,60.00000,8.077822e-006
 442.00000, 83.79288,3.373529e-003,60.00000,8.078747e-006
 443.00000, 83.99876,3.382143e-003,60.00000,8.080083e-006
 444.00000, 84.20433,3.390642e-003,60.00000,8.081018e-006
 445.00000, 84.40971,3.399480e-003,60.00000,8.082851e-006
 446.00000, 84.61503,3.408152e-003,60.00000,8.084293e-006
 447.00000, 84.82066,3.416575e-003,60.00000,8.085058e-006
 448.00000, 85.02677,3.425305e-003,60.00000,8.086583e-006
 449.00000, 85.23357,3.433898e-003,60.00000,8.087871e-006
 450.00000, 85.44073,3.442049e-003,60.00000,8.087959e-006
 451.00000, 85.64725,3.450653e-003,60.00000,8.089202e-006
 452.00000, 85.85323,3.459471e-003,60.00000,8.091030e-006
 453.00000, 86.05873,3.467605e-003,60.00000,8.091090e-006
 454.00000, 86.26341,3.475741e-003,60.00000,8.091211e-006
 455.00000, 86.46714,3.484155e-003,60.00000,8.092038e-006
 456.00000, 86.67009,3.491782e-003,60.00000,8.090900e-006
 457.00000, 86.87218,3.500476e-003,60.00000,8.092282e-006
 458.00000, 87.07316,3.508521e-003,60.00000,8.092241e-006
 459.00000, 87.27388,3.516364e-003,60.00000,8.091572e-006
 460.00000, 87.47450,3.524972e-003,60.00000,8.092745e-006
 461.00000, 87.67540,3.532881e-003,60.00000,8.092331e-006
 462.00000, 87.87712,3.541226e-003,60.00000,8.092921e-006
 463.00000, 88.07960,3.549543e-003,60.00000,8.093420e-006
 464.00000, 88.28289,3.557097e-003,60.00000,8.092231e-006
 465.00000, 88.48664,3.565508e-003,60.00000,8.092944e-006
 466.00000, 88.69072,3.573726e-003,60.00000,8.093246e-006
 467.00000, 88.89489,3.581603e-003,60.00000,8.092820e-006
 468.00000, 89.09866,3.589481e-003,60.00000,8.092278e-006
 469.00000, 89.30189,3.597528e-003,60.00000,8.092124e-006
 470.00000, 89.50480,3.605481e-003,60.00000,8.091857e-006
 471.00000, 89.70744,3.612762e-003,60.00000,8.090009e-006
 472.00000, 89.90978,3.621015e-003,60.00000,8.090366e-006
 473.00000, 90.11191,3.629141e-003,60.00000,8.090446e-006
 474.00000, 90.31376,3.637184e-003,60.00000,8.090286e-006
 475.00000, 90.51576,3.645020e-003,60.00000,8.089615e-006
 476.00000, 90.71783,3.652942e-003,60.00000,8.089385e-006
 477.00000, 90.92007,3.661150e-003,60.00000,8.089681e-006
 478.00000, 91.12277,3.669372e-003,60.00000,8.089940e-006
 479.00000, 91.32574,3.677099e-003,60.00000,8.089169e-006
 480.00000, 91.52893,3.684785e-003,60.00000,8.088287e-006
 481.00000, 91.73226,3.692967e-003,60.00000,8.088491e-006
 482.00000, 91.93573,3.700782e-003,60.00000,8.087782e-006
 483.00000, 92.13935,3.708771e-003,60.00000,8.087610e-006
 484.00000, 92.34252,3.716511e-003,60.00000,8.086849e-006
 485.00000, 92.54552,3.724415e-003,60.00000,8.086498e-006
 486.00000, 92.74861,3.732146e-003,60.00000,8.085597e-006
 487.00000, 92.95097,3.740475e-003,60.00000,8.086183e-006
 488.00000, 93.15289,3.748186e-003,60.00000,8.085380e-006
 489.00000, 93.35460,3.756565e-003,60.00000,8.086040e-006
 490.00000, 93.55645,3.764987e-003,60.00000,8.086786e-006
 491.00000, 93.75857,3.773150e-003,60.00000,8.086920e-006
 492.00000, 93.96087,3.781895e-003,60.00000,8.088361e-006
 493.00000, 94.16403,3.790359e-003,60.00000,8.089173e-006
 494.00000, 94.36833,3.798749e-003,60.00000,8.089811e-006
 495.00000, 94.57341,3.806719e-003,60.00000,8.089529e-006
 496.00000, 94.77896,3.814907e-003,60.00000,8.089810e-006
 497.00000, 94.98501,3.823274e-003,60.00000,8.090373e-006
 498.00000, 95.19119,3.831642e-003,60.00000,8.090946e-006
 499.00000, 95.39755,3.839561e-003,60.00000,8.090562e-006
 500.00000, 95.60381,3.847342e-003,60.00000,8.089963e-006
 501.00000, 95.80923,3.855217e-003,60.00000,8.089500e-006
 502.00000, 96.01356,3.862963e-003,60.00000,8.088826e-006
 503.00000, 96.21686,3.871097e-003,60.00000,8.088810e-006
 504.00000, 96.41978,3.878709e-003,60.00000,8.087886e-006
 505.00000, 96.62265,3.887022e-003,60.00000,8.088316e-006
 506.00000, 96.82546,3.895257e-003,60.00000,8.088612e-006
 507.00000, 97.02876,3.903686e-003,60.00000,8.089262e-006
 508.00000, 97.23253,3.912139e-003,60.00000,8.090041e-006
 509.00000, 97.43685,3.920228e-003,60.00000,8.090073e-006
 510.00000, 97.64196,3.928875e-003,60.00000,8.091242e-006
 511.00000, 97.84765,3.937330e-003,60.00000,8.091953e-006
 512.00000, 98.05407,3.945594e-003,60.00000,8.092252e-006
 513.00000, 98.26083,3.954014e-003,60.00000,8.093042e-006
 514.00000, 98.46782,3.962416e-003,60.00000,8.093703e-006
 515.00000, 98.67475,3.970557e-003,60.00000,8.093780e-006
 516.00000, 98.88084,3.978966e-003,60.00000,8.094387e-006
 517.00000, 99.08672,3.987131e-003,60.00000,8.094576e-006
 518.00000, 99.29238,3.994847e-003,60.00000,8.093801e-006
 519.00000, 99.49745,4.003235e-003,60.00000,8.094373e-006
 520.00000, 99.70222,4.011182e-003,60.00000,8.094135e-006
 521.00000, 99.90679,4.018837e-003,60.00000,8.093221e-006
 522.00000,100.11104,4.026757e-003,60.00000,8.092885e-006
 523.00000,100.31534,4.034733e-003,60.00000,8.092559e-006
 524.00000,100.52031,4.042666e-003,60.00000,8.092261e-006
 525.00000,100.72602,4.050328e-003,60.00000,8.091378e-006
 526.00000,100.93227,4.058034e-003,60.00000,8.090686e-006
 527.00000,101.13829,4.065860e-003,60.00000,8.090080e-006
 528.00000,101.34392,4.073401e-003,60.00000,8.089041e-006
 529.00000,101.54921,4.081013e-003,60.00000,8.088107e-006
 530.00000,101.75351,4.088867e-003,60.00000,8.087656e-006
 531.00000,101.95711,4.096805e-003,60.00000,8.087308e-006
 532.00000,102.15996,4.104712e-003,60.00000,8.086990e-006
 533.00000,102.36165,4.113075e-003,60.00000,8.087490e-006
 534.00000,102.56260,4.121028e-003,60.00000,8.087212e-006
 535.00000,102.76310,4.129233e-003,60.00000,8.087338e-006
 536.00000,102.96326,4.137670e-003,60.00000,8.088131e-006
 537.00000,103.16333,4.145844e-003,60.00000,8.088300e-006
 538.00000,103.36357,4.154453e-003,60.00000,8.089276e-006
 539.00000,103.56453,4.162753e-003,60.00000,8.089723e-006
 540.00000,103.76604,4.171133e-003,60.00000,8.090293e-006
 541.00000,103.96769,4.179314e-003,60.00000,8.090481e-006
 542.00000,104.16974,4.187455e-003,60.00000,8.090571e-006
 543.00000,104.37280,4.195639e-003,60.00000,8.090725e-006
 544.00000,104.57688,4.203435e-003,60.00000,8.090207e-006
 545.00000,104.78148,4.211852e-003,60.00000,8.090823e-006
 546.00000,104.98627,4.219719e-003,60.00000,8.090375e-006
 547.00000,105.19110,4.227566e-003,60.00000,8.089949e-006
 548.00000,105.39566,4.235686e-003,60.00000,8.089939e-006
 549.00000,105.59963,4.243576e-003,60.00000,8.089625e-006
 550.00000,105.80334,4.251600e-003,60.00000,8.089489e-006
 551.00000,106.00629,4.259106e-003,60.00000,8.088351e-006
 552.00000,106.20805,4.266729e-003,60.00000,8.087542e-006
 553.00000,106.40888,4.274177e-003,60.00000,8.086261e-006
 554.00000,106.60901,4.282036e-003,60.00000,8.085793e-006
 555.00000,106.80897,4.289579e-003,60.00000,8.084716e-006
 556.00000,107.00870,4.297525e-003,60.00000,8.084537e-006
 557.00000,107.20883,4.305313e-003,60.00000,8.083848e-006
 558.00000,107.40935,4.313078e-003,60.00000,8.083350e-006
 559.00000,107.61071,4.320925e-003,60.00000,8.082812e-006
 560.00000,107.81307,4.329117e-003,60.00000,8.083053e-006
 561.00000,108.01635,4.337170e-003,60.00000,8.083038e-006
 562.00000,108.22061,4.345247e-003,60.00000,8.083008e-006
 563.00000,108.42509,4.352728e-003,60.00000,8.081900e-006
 564.00000,108.62969,4.360675e-003,60.00000,8.081641e-006
 565.00000,108.83375,4.368343e-003,60.00000,8.080901e-006
 566.00000,109.03680,4.375648e-003,60.00000,8.079430e-006
 567.00000,109.23981,4.383581e-003,60.00000,8.079150e-006
 568.00000,109.44282,4.390933e-003,60.00000,8.077810e-006
 569.00000,109.64615,4.398789e-003,60.00000,8.077379e-006
 570.00000,109.85033,4.407316e-003,60.00000,8.078182e-006
 571.00000,110.05509,4.414995e-003,60.00000,8.077446e-006
 572.00000,110.25996,4.423798e-003,60.00000,8.078847e-006
 573.00000,110.46493,4.432376e-003,60.00000,8.079762e-006
 574.00000,110.66999,4.441268e-003,60.00000,8.081268e-006
 575.00000,110.87470,4.450110e-003,60.00000,8.082645e-006
 576.00000,111.07824,4.458542e-003,60.00000,8.083327e-006
 577.00000,111.28060,4.467553e-003,60.00000,8.084952e-006
 578.00000,111.48229,4.475677e-003,60.00000,8.085073e-006
 579.00000,111.68416,4.483803e-003,60.00000,8.085124e-006
 580.00000,111.88667,4.492378e-003,60.00000,8.086005e-006
 581.00000,112.09004,4.500844e-003,60.00000,8.086740e-006
 582.00000,112.29483,4.509191e-003,60.00000,8.087175e-006
 583.00000,112.50098,4.517584e-003,60.00000,8.087775e-006
 584.00000,112.70803,4.526154e-003,60.00000,8.088627e-006
 585.00000,112.91532,4.534164e-003,60.00000,8.088500e-006
 586.00000,113.12221,4.542470e-003,60.00000,8.088849e-006
 587.00000,113.32800,4.550777e-003,60.00000,8.089210e-006
 588.00000,113.53272,4.559049e-003,60.00000,8.089585e-006
 589.00000,113.73685,4.567274e-003,60.00000,8.089790e-006
 590.00000,113.94040,4.575567e-003,60.00000,8.090184e-006
 591.00000,114.14339,4.583633e-003,60.00000,8.090159e-006
 592.00000,114.34652,4.591891e-003,60.00000,8.090384e-006
 593.00000,114.54993,4.599845e-003,60.00000,8.090201e-006
 594.00000,114.75322,4.607658e-003,60.00000,8.089673e-006
 595.00000,114.95616,4.615306e-003,60.00000,8.088927e-006
 596.00000,115.15842,4.622742e-003,60.00000,8.087722e-006
 597.00000,115.36060,4.630603e-003,60.00000,8.087335e-006
 598.00000,115.56321,4.638173e-003,60.00000,8.086396e-006
 599.00000,115.76559,4.645875e-003,60.00000,8.085777e-006
 600.00000,115.96789,4.653563e-003,60.00000,8.085155e-006
 601.00000,116.16998,4.660824e-003,60.00000,8.083624e-006
 602.00000,116.37140,4.669239e-003,60.00000,8.084228e-006
 603.00000,116.57207,4.677156e-003,60.00000,8.083957e-006
 604.00000,116.77164,4.685000e-003,60.00000,8.083584e-006
 605.00000,116.97081,4.692799e-003,60.00000,8.083028e-006
 606.00000,117.17037,4.701080e-003,60.00000,8.083330e-006
 607.00000,117.37023,4.708882e-003,60.00000,8.082823e-006
 608.00000,117.57030,4.716579e-003,60.00000,8.082151e-006
 609.00000,117.77076,4.725113e-003,60.00000,8.083000e-006
 610.00000,117.97151,4.733473e-003,60.00000,8.083437e-006
 611.00000,118.17302,4.741632e-003,60.00000,8.083509e-006
 612.00000,118.37554,4.749627e-003,60.00000,8.083432e-006
 613.00000,118.57847,4.758166e-003,60.00000,8.084213e-006
 614.00000,118.78219,4.766557e-003,60.00000,8.084701e-006
 615.00000,118.98620,4.774811e-003,60.00000,8.084980e-006
 616.00000,119.19013,4.783087e-003,60.00000,8.085385e-006
 617.00000,119.39357,4.791308e-003,60.00000,8.085586e-006
 618.00000,119.59558,4.799162e-003,60.00000,8.085240e-006
 619.00000,119.79656,4.807359e-003,60.00000,8.085311e-006
 620.00000,119.99717,4.815466e-003,60.00000,8.085360e-006
 621.00000,120.19808,4.823487e-003,60.00000,8.085257e-006
 622.00000,120.39955,4.831540e-003,60.00000,8.085259e-006
 623.00000,120.60209,4.839363e-003,60.00000,8.084781e-006
 624.00000,120.80619,4.847765e-003,60.00000,8.085353e-006
 625.00000,121.01145,4.855694e-003,60.00000,8.085094e-006
 626.00000,121.21691,4.864050e-003,60.00000,8.085563e-006
 627.00000,121.42233,4.872080e-003,60.00000,8.085496e-006
 628.00000,121.62750,4.880200e-003,60.00000,8.085451e-006
 629.00000,121.83176,4.888136e-003,60.00000,8.085291e-006
 630.00000,122.03496,4.896288e-003,60.00000,8.085350e-006
 631.00000,122.23760,4.904181e-003,60.00000,8.085038e-006
 632.00000,122.43986,4.912168e-003,60.00000,8.084892e-006
 633.00000,122.64199,4.920189e-003,60.00000,8.084752e-006
 634.00000,122.84406,4.927795e-003,60.00000,8.083983e-006
 635.00000,123.04649,4.935996e-003,60.00000,8.084112e-006
 636.00000,123.24970,4.944403e-003,60.00000,8.084686e-006
 637.00000,123.45310,4.952917e-003,60.00000,8.085433e-006
 638.00000,123.65591,4.960734e-003,60.00000,8.084956e-006
 639.00000,123.85840,4.969381e-003,60.00000,8.085877e-006
 640.00000,124.06078,4.977795e-003,60.00000,8.086403e-006
 641.00000,124.26293,4.986334e-003,60.00000,8.087122e-006
 642.00000,124.46493,4.994950e-003,60.00000,8.088010e-006
 643.00000,124.66701,5.003759e-003,60.00000,8.089182e-006
 644.00000,124.86937,5.012571e-003,60.00000,8.090351e-006
 645.00000,125.07204,5.022052e-003,60.00000,8.092623e-006
 646.00000,125.27553,5.031390e-003,60.00000,8.094653e-006
 647.00000,125.47899,5.040789e-003,60.00000,8.096766e-006
 648.00000,125.68216,5.050254e-003,60.00000,8.098985e-006
 649.00000,125.88593,5.059170e-003,60.00000,8.100246e-006
 650.00000,126.08998,5.068020e-003,60.00000,8.101537e-006
 651.00000,126.29467,5.076523e-003,60.00000,8.102137e-006
 652.00000,126.49947,5.085047e-003,60.00000,8.102860e-006
 653.00000,126.70373,5.093267e-003,60.00000,8.103014e-006
 654.00000,126.90794,5.101989e-003,60.00000,8.104063e-006
 655.00000,127.11232,5.110516e-003,60.00000,8.104661e-006
 656.00000,127.31722,5.119548e-003,60.00000,8.106177e-006
 657.00000,127.52311,5.128268e-003,60.00000,8.107145e-006
 658.00000,127.73065,5.137467e-003,60.00000,8.108897e-006
 659.00000,127.93984,5.146437e-003,60.00000,8.110319e-006
 660.00000,128.14970,5.155963e-003,60.00000,8.112569e-006
 661.00000,128.35927,5.164907e-003,60.00000,8.113831e-006
 662.00000,128.56805,5.173551e-003,60.00000,8.114710e-006
 663.00000,128.77638,5.181729e-003,60.00000,8.114800e-006
 664.00000,128.98443,5.190481e-003,60.00000,8.115772e-006
 665.00000,129.19222,5.198785e-003,60.00000,8.116061e-006
 666.00000,129.39964,5.207542e-003,60.00000,8.117068e-006
 667.00000,129.60704,5.216060e-003,60.00000,8.117711e-006
 668.00000,129.81455,5.224415e-003,60.00000,8.118048e-006
 669.00000,130.02107,5.232650e-003,60.00000,8.118339e-006
 670.00000,130.22598,5.240902e-003,60.00000,8.118508e-006
 671.00000,130.42967,5.249376e-003,60.00000,8.119029e-006
 672.00000,130.63296,5.257410e-003,60.00000,8.118906e-006
 673.00000,130.83647,5.265798e-003,60.00000,8.119256e-006
 674.00000,131.04040,5.274062e-003,60.00000,8.119542e-006
 675.00000,131.24521,5.283515e-003,60.00000,8.121549e-006
 676.00000,131.45109,5.292218e-003,60.00000,8.122488e-006
 677.00000,131.65809,5.301303e-003,60.00000,8.124019e-006
 678.00000,131.86550,5.310501e-003,60.00000,8.125673e-006
 679.00000,132.07181,5.319718e-003,60.00000,8.127388e-006
 680.00000,132.27643,5.328599e-003,60.00000,8.128524e-006
 681.00000,132.47956,5.336950e-003,60.00000,8.128853e-006
 682.00000,132.68163,5.345312e-003,60.00000,8.129191e-006
 683.00000,132.88350,5.354132e-003,60.00000,8.130255e-006
 684.00000,133.08502,5.362717e-003,60.00000,8.130974e-006
 685.00000,133.28609,5.371618e-003,60.00000,8.132132e-006
 686.00000,133.48769,5.380248e-003,60.00000,8.132885e-006
 687.00000,133.68959,5.389041e-003,60.00000,8.133937e-006
 688.00000,133.89182,5.398090e-003,60.00000,8.135305e-006
 689.00000,134.09453,5.407190e-003,60.00000,8.136711e-006
 690.00000,134.29695,5.416330e-003,60.00000,8.138223e-006
 691.00000,134.49659,5.425360e-003,60.00000,8.139692e-006
 692.00000,134.69107,5.433788e-003,60.00000,8.140115e-006
 693.00000,134.88073,5.441815e-003,60.00000,8.139937e-006
 694.00000,135.06766,5.450131e-003,60.00000,8.140135e-006
 695.00000,135.25436,5.458834e-003,60.00000,8.140898e-006
 696.00000,135.44293,5.467528e-003,60.00000,8.141815e-006
 697.00000,135.63504,5.476015e-003,60.00000,8.142280e-006
 698.00000,135.83177,5.485914e-003,60.00000,8.144874e-006
 699.00000,136.03311,5.495284e-003,60.00000,8.146797e-006
 700.00000,136.23899,5.504562e-003,60.00000,8.148424e-006
 701.00000,136.44932,5.513646e-003,60.00000,8.149848e-006
 702.00000,136.66242,5.522842e-003,60.00000,8.151466e-006
 703.00000,136.87578,5.531943e-003,60.00000,8.152918e-006
 704.00000,137.08775,5.540673e-003,60.00000,8.153747e-006
 705.00000,137.29729,5.549925e-003,60.00000,8.155373e-006
 706.00000,137.50379,5.558301e-003,60.00000,8.155711e-006
 707.00000,137.70715,5.566611e-003,60.00000,8.155965e-006
 708.00000,137.90737,5.575409e-003,60.00000,8.156898e-006
 709.00000,138.10485,5.583827e-003,60.00000,8.157265e-006
 710.00000,138.30039,5.592201e-003,60.00000,8.157555e-006
 711.00000,138.49513,5.601312e-003,60.00000,8.158973e-006
 712.00000,138.68961,5.610323e-003,60.00000,8.160195e-006
 713.00000,138.88367,5.619588e-003,60.00000,8.161790e-006
 714.00000,139.07830,5.629046e-003,60.00000,8.163673e-006
 715.00000,139.27496,5.638399e-003,60.00000,8.165389e-006
 716.00000,139.47393,5.648172e-003,60.00000,8.167836e-006
 717.00000,139.67449,5.657980e-003,60.00000,8.170104e-006
 718.00000,139.87631,5.667638e-003,60.00000,8.172328e-006
 719.00000,140.08017,5.677537e-003,60.00000,8.174752e-006
 720.00000,140.28526,5.686557e-003,60.00000,8.176048e-006
 721.00000,140.49096,5.695821e-003,60.00000,8.177630e-006
 722.00000,140.69653,5.705083e-003,60.00000,8.179231e-006
 723.00000,140.90172,5.713908e-003,60.00000,8.180158e-006
 724.00000,141.10619,5.722769e-003,60.00000,8.181130e-006
 725.00000,141.30909,5.731147e-003,60.00000,8.181395e-006
 726.00000,141.51037,5.739703e-003,60.00000,8.181946e-006
 727.00000,141.71021,5.748673e-003,60.00000,8.183101e-006
 728.00000,141.90897,5.757422e-003,60.00000,8.183899e-006
 729.00000,142.10720,5.766272e-003,60.00000,8.184830e-006
 730.00000,142.30539,5.775628e-003,60.00000,8.186470e-006
 731.00000,142.50370,5.784205e-003,60.00000,8.187080e-006
 732.00000,142.70208,5.793186e-003,60.00000,8.188158e-006
 733.00000,142.90022,5.802467e-003,60.00000,8.189754e-006
 734.00000,143.09855,5.811511e-003,60.00000,8.190991e-006
 735.00000,143.29675,5.820810e-003,60.00000,8.192558e-006
 736.00000,143.49479,5.829944e-003,60.00000,8.193891e-006
 737.00000,143.69275,5.838968e-003,60.00000,8.195060e-006
 738.00000,143.89022,5.848115e-003,60.00000,8.196404e-006
 739.00000,144.08765,5.857499e-003,60.00000,8.198079e-006
 740.00000,144.28506,5.866571e-003,60.00000,8.199240e-006
 741.00000,144.48232,5.875947e-003,60.00000,8.200906e-006
 742.00000,144.67961,5.884512e-003,60.00000,8.201455e-006
 743.00000,144.87665,5.894127e-003,60.00000,8.203419e-006
 744.00000,145.07338,5.903058e-003,60.00000,8.204448e-006
 745.00000,145.27076,5.912667e-003,60.00000,8.206416e-006
 746.00000,145.46906,5.922424e-003,60.00000,8.208613e-006
 747.00000,145.66763,5.932188e-003,60.00000,8.210745e-006
 748.00000,145.86633,5.941742e-003,60.00000,8.212644e-006
 749.00000,146.06510,5.951081e-003,60.00000,8.214228e-006
 750.00000,146.26356,5.960906e-003,60.00000,8.216446e-006
 751.00000,146.46198,5.970097e-003,60.00000,8.217784e-006
 752.00000,146.66042,5.979469e-003,60.00000,8.219370e-006
 753.00000,146.85845,5.988772e-003,60.00000,8.220880e-006
 754.00000,147.05605,5.998596e-003,60.00000,8.223118e-006
 755.00000,147.25336,6.008096e-003,60.00000,8.224818e-006
 756.00000,147.45024,6.017843e-003,60.00000,8.226932e-006
 757.00000,147.64669,6.027566e-003,60.00000,8.228984e-006
 758.00000,147.84309,6.037404e-003,60.00000,8.231245e-006
 759.00000,148.03996,6.047163e-003,60.00000,8.233306e-006
 760.00000,148.23691,6.057176e-003,60.00000,8.235763e-006
 761.00000,148.43376,6.066937e-003,60.00000,8.237820e-006
 762.00000,148.63087,6.076802e-003,60.00000,8.240082e-006
 763.00000,148.82853,6.086640e-003,60.00000,8.242197e-006
 764.00000,149.02665,6.095655e-003,60.00000,8.243262e-006
 765.00000,149.22511,6.105209e-003,60.00000,8.245090e-006
 766.00000,149.42395,6.114826e-003,60.00000,8.246949e-006
 767.00000,149.62305,6.124144e-003,60.00000,8.248404e-006
 768.00000,149.82153,6.133603e-003,60.00000,8.250046e-006
 769.00000,150.01923,6.143024e-003,60.00000,8.251604e-006
 770.00000,150.21659,6.152377e-003,60.00000,8.253124e-006
 771.00000,150.41404,6.162160e-003,60.00000,8.255167e-006
 772.00000,150.61215,6.171497e-003,60.00000,8.256663e-006
 773.00000,150.81151,6.181328e-003,60.00000,8.258716e-006
 774.00000,151.01204,6.191355e-003,60.00000,8.261150e-006
 775.00000,151.21278,6.200939e-003,60.00000,8.262911e-006
 776.00000,151.41307,6.211331e-003,60.00000,8.265805e-006
 777.00000,151.61297,6.220144e-003,60.00000,8.266501e-006
 778.00000,151.81223,6.229631e-003,60.00000,8.268125e-006
 779.00000,152.01080,6.239344e-003,60.00000,8.270073e-006
 780.00000,152.20879,6.249512e-003,60.00000,8.272561e-006
 781.00000,152.40681,6.259503e-003,60.00000,8.274845e-006
 782.00000,152.60523,6.269876e-003,60.00000,8.277673e-006
 783.00000,152.80382,6.280544e-003,60.00000,8.280831e-006
 784.00000,153.00267,6.290745e-003,60.00000,8.283358e-006
 785.00000,153.20160,6.301262e-003,60.00000,8.286325e-006
 786.00000,153.40077,6.311800e-003,60.00000,8.289330e-006
 787.00000,153.60043,6.322522e-003,60.00000,8.292550e-006
 788.00000,153.79992,6.333422e-003,60.00000,8.295952e-006
 789.00000,153.99924,6.343968e-003,60.00000,8.298946e-006
 790.00000,154.19873,6.355133e-003,60.00000,8.302701e-006
 791.00000,154.39829,6.365181e-003,60.00000,8.305009e-006
 792.00000,154.59827,6.375895e-003,60.00000,8.308166e-006
 793.00000,154.79825,6.385788e-003,60.00000,8.310213e-006
 794.00000,154.99924,6.396055e-003,60.00000,8.312742e-006
 795.00000,155.20212,6.406236e-003,60.00000,8.315274e-006
 796.00000,155.40403,6.416307e-003,60.00000,8.317573e-006
 797.00000,155.60341,6.426070e-003,60.00000,8.319422e-006
 798.00000,155.80102,6.435899e-003,60.00000,8.321416e-006
 799.00000,155.99769,6.445726e-003,60.00000,8.323329e-006
 800.00000,156.19373,6.455582e-003,60.00000,8.325353e-006
 801.00000,156.38966,6.465213e-003,60.00000,8.326997e-006
 802.00000,156.58568,6.474769e-003,60.00000,8.328577e-006
 803.00000,156.78206,6.484755e-003,60.00000,8.330764e-006
 804.00000,156.97908,6.494314e-003,60.00000,8.332333e-006
 805.00000,157.17619,6.504595e-003,60.00000,8.334888e-006
 806.00000,157.37364,6.513998e-003,60.00000,8.336232e-006
 807.00000,157.57166,6.524411e-003,60.00000,8.338923e-006
 808.00000,157.76964,6.534620e-003,60.00000,8.341264e-006
 809.00000,157.96706,6.544018e-003,60.00000,8.342659e-006
 810.00000,158.16401,6.553935e-003,60.00000,8.344696e-006
 811.00000,158.36060,6.563017e-003,60.00000,8.345611e-006
 812.00000,158.55689,6.573140e-003,60.00000,8.347919e-006
 813.00000,158.75312,6.582931e-003,60.00000,8.349731e-006
 814.00000,158.95038,6.592917e-003,60.00000,8.351797e-006
 815.00000,159.14948,6.603634e-003,60.00000,8.354824e-006
 816.00000,159.34958,6.613951e-003,60.00000,8.357313e-006
 817.00000,159.54989,6.624125e-003,60.00000,8.359682e-006
 818.00000,159.74999,6.634061e-003,60.00000,8.361634e-006
 819.00000,159.94862,6.644128e-003,60.00000,8.363825e-006
 820.00000,160.14597,6.654056e-003,60.00000,8.365803e-006
 821.00000,160.34271,6.664251e-003,60.00000,8.368118e-006
 822.00000,160.53978,6.674005e-003,60.00000,8.369851e-006
 823.00000,160.73771,6.684624e-003,60.00000,8.372693e-006
 824.00000,160.93584,6.694439e-003,60.00000,8.374538e-006
 825.00000,161.13426,6.704581e-003,60.00000,8.376714e-006
 826.00000,161.33369,6.714408e-003,60.00000,8.378581e-006
 827.00000,161.53447,6.724325e-003,60.00000,8.380502e-006
 828.00000,161.73598,6.734378e-003,60.00000,8.382603e-006
 829.00000,161.93674,6.744126e-003,60.00000,8.384282e-006
 830.00000,162.13522,6.754017e-003,60.00000,8.386186e-006
 831.00000,162.33153,6.763951e-003,60.00000,8.388142e-006
 832.00000,162.52667,6.774426e-003,60.00000,8.390692e-006
 833.00000,162.72161,6.785243e-003,60.00000,8.393700e-006
 834.00000,162.91666,6.795786e-003,60.00000,8.396418e-006
 835.00000,163.11196,6.806561e-003,60.00000,8.399364e-006
 836.00000,163.30798,6.817591e-003,60.00000,8.402587e-006
 837.00000,163.50504,6.828155e-003,60.00000,8.405259e-006
 838.00000,163.70330,6.839082e-003,60.00000,8.408427e-006
 839.00000,163.90270,6.849828e-003,60.00000,8.411286e-006
 840.00000,164.10298,6.860113e-003,60.00000,8.413623e-006
 841.00000,164.30372,6.871010e-003,60.00000,8.416672e-006
 842.00000,164.50437,6.881249e-003,60.00000,8.418956e-006
 843.00000,164.70498,6.891792e-003,60.00000,8.421529e-006
 844.00000,164.90511,6.902550e-003,60.00000,8.424354e-006
 845.00000,165.10505,6.911961e-003,60.00000,8.425647e-006
 846.00000,165.30557,6.921399e-003,60.00000,8.426843e-006
 847.00000,165.50643,6.931789e-003,60.00000,8.429290e-006
 848.00000,165.70765,6.942280e-003,60.00000,8.431813e-006
 849.00000,165.90896,6.953651e-003,60.00000,8.435397e-006
 850.00000,166.10990,6.964842e-003,60.00000,8.438723e-006
 851.00000,166.31073,6.976159e-003,60.00000,8.442236e-006
 852.00000,166.51147,6.987544e-003,60.00000,8.445837e-006
 853.00000,166.71188,6.998661e-003,60.00000,8.449061e-006
 854.00000,166.91230,7.009278e-003,60.00000,8.451740e-006
 855.00000,167.11324,7.019341e-003,60.00000,8.453659e-006
 856.00000,167.31516,7.028844e-003,60.00000,8.454949e-006
 857.00000,167.51828,7.038946e-003,60.00000,8.456884e-006
 858.00000,167.72202,7.048434e-003,60.00000,8.458182e-006
 859.00000,167.92578,7.058121e-003,60.00000,8.459680e-006
 860.00000,168.12886,7.067772e-003,60.00000,8.461052e-006
 861.00000,168.33071,7.077688e-003,60.00000,8.462856e-006
 862.00000,168.53123,7.087757e-003,60.00000,8.464762e-006
 863.00000,168.72972,7.097411e-003,60.00000,8.466222e-006
 864.00000,168.92600,7.107103e-003,60.00000,8.467654e-006
 865.00000,169.12076,7.117924e-003,60.00000,8.470476e-006
 866.00000,169.31598,7.128419e-003,60.00000,8.472867e-006
 867.00000,169.51224,7.139187e-003,60.00000,8.475626e-006
 868.00000,169.70864,7.150057e-003,60.00000,8.478489e-006
 869.00000,169.90498,7.160765e-003,60.00000,8.481146e-006
 870.00000,170.10117,7.171062e-003,60.00000,8.483323e-006
 871.00000,170.29694,7.181866e-003,60.00000,8.486064e-006
 872.00000,170.49301,7.191916e-003,60.00000,8.487920e-006
 873.00000,170.68950,7.203231e-003,60.00000,8.491293e-006
 874.00000,170.88584,7.213692e-003,60.00000,8.493613e-006
 875.00000,171.08211,7.224407e-003,60.00000,8.496278e-006
 876.00000,171.27866,7.234846e-003,60.00000,8.498536e-006
 877.00000,171.47595,7.245275e-003,60.00000,8.500797e-006
 878.00000,171.67421,7.255905e-003,60.00000,8.503324e-006
 879.00000,171.87300,7.266146e-003,60.00000,8.505400e-006
 880.00000,172.07196,7.276247e-003,60.00000,8.507244e-006
 881.00000,172.27108,7.286673e-003,60.00000,8.509496e-006
 882.00000,172.47062,7.297474e-003,60.00000,8.512210e-006
 883.00000,172.67042,7.308005e-003,60.00000,8.514570e-006
 884.00000,172.86962,7.317954e-003,60.00000,8.516255e-006
 885.00000,173.06817,7.328092e-003,60.00000,8.518125e-006
 886.00000,173.26643,7.338592e-003,60.00000,8.520483e-006
 887.00000,173.46454,7.349098e-003,60.00000,8.522789e-006
 888.00000,173.66278,7.359626e-003,60.00000,8.525124e-006
 889.00000,173.86129,7.369999e-003,60.00000,8.527267e-006
 890.00000,174.06003,7.380425e-003,60.00000,8.529449e-006
 891.00000,174.25846,7.390286e-003,60.00000,8.531004e-006
 892.00000,174.45614,7.400509e-003,60.00000,8.532999e-006
 893.00000,174.65329,7.411141e-003,60.00000,8.535448e-006
 894.00000,174.84977,7.421403e-003,60.00000,8.537413e-006
 895.00000,175.04585,7.431317e-003,60.00000,8.539051e-006
 896.00000,175.24245,7.442129e-003,60.00000,8.541587e-006
 897.00000,175.43930,7.452683e-003,60.00000,8.543975e-006
 898.00000,175.63650,7.462738e-003,60.00000,8.545698e-006
 899.00000,175.83442,7.473091e-003,60.00000,8.547739e-006
 900.00000,176.03333,7.483410e-003,60.00000,8.549786e-006
 901.00000,176.23272,7.493585e-003,60.00000,8.551669e-006
 902.00000,176.43261,7.503619e-003,60.00000,8.553347e-006
 903.00000,176.63331,7.513190e-003,60.00000,8.554539e-006
 904.00000,176.83462,7.523667e-003,60.00000,8.556743e-006
 905.00000,177.03635,7.533688e-003,60.00000,8.558428e-006
 906.00000,177.23890,7.544591e-003,60.00000,8.561075e-006
 907.00000,177.44171,7.554283e-003,60.00000,8.562370e-006
 908.00000,177.64337,7.564425e-003,60.00000,8.564194e-006
 909.00000,177.84349,7.574552e-003,60.00000,8.565999e-006
 910.00000,178.04240,7.585445e-003,60.00000,8.568599e-006
 911.00000,178.24101,7.595661e-003,60.00000,8.570478e-006
 912.00000,178.44080,7.605879e-003,60.00000,8.572309e-006
 913.00000,178.64226,7.616295e-003,60.00000,8.574440e-006
 914.00000,178.84488,7.626979e-003,60.00000,8.576840e-006
 915.00000,179.04771,7.637337e-003,60.00000,8.578834e-006
 916.00000,179.25101,7.647942e-003,60.00000,8.581095e-006
 917.00000,179.45508,7.658097e-003,60.00000,8.582878e-006
 918.00000,179.65870,7.668477e-003,60.00000,8.584906e-006
 919.00000,179.86170,7.678550e-003,60.00000,8.586633e-006
 920.00000,180.06402,7.688691e-003,60.00000,8.588328e-006
 921.00000,180.26511,7.699155e-003,60.00000,8.590432e-006
 922.00000,180.46525,7.708892e-003,60.00000,8.591702e-006
 923.00000,180.66459,7.719822e-003,60.00000,8.594335e-006
 924.00000,180.86391,7.729639e-003,60.00000,8.595681e-006
 925.00000,181.06324,7.740187e-003,60.00000,8.597890e-006
 926.00000,181.26210,7.750797e-003,60.00000,8.600163e-006
 927.00000,181.46007,7.760886e-003,60.00000,8.601809e-006
 928.00000,181.65707,7.771076e-003,60.00000,8.603571e-006
 929.00000,181.85356,7.781526e-003,60.00000,8.605645e-006
 930.00000,182.04995,7.791381e-003,60.00000,8.607035e-006
 931.00000,182.24637,7.802485e-003,60.00000,8.609769e-006
 932.00000,182.44271,7.813028e-003,60.00000,8.611946e-006
 933.00000,182.63915,7.823358e-003,60.00000,8.613836e-006
 934.00000,182.83572,7.834109e-003,60.00000,8.616149e-006
 935.00000,183.03301,7.844339e-003,60.00000,8.617971e-006
 936.00000,183.23083,7.854772e-003,60.00000,8.619973e-006
 937.00000,183.42803,7.865371e-003,60.00000,8.622165e-006
 938.00000,183.62459,7.875914e-003,60.00000,8.624227e-006
 939.00000,183.82103,7.886115e-003,60.00000,8.626003e-006
 940.00000,184.01807,7.897069e-003,60.00000,8.628542e-006
 941.00000,184.21496,7.907914e-003,60.00000,8.630976e-006
 942.00000,184.41093,7.918363e-003,60.00000,8.632966e-006
 943.00000,184.60654,7.928657e-003,60.00000,8.634793e-006
 944.00000,184.80283,7.939229e-003,60.00000,8.636917e-006
 945.00000,185.00051,7.950215e-003,60.00000,8.639453e-006
 946.00000,185.20030,7.960667e-003,60.00000,8.641433e-006
 947.00000,185.40170,7.971555e-003,60.00000,8.643925e-006
 948.00000,185.60320,7.982089e-003,60.00000,8.645978e-006
 949.00000,185.80464,7.992050e-003,60.00000,8.647390e-006
 950.00000,186.00573,8.001947e-003,60.00000,8.648790e-006
 951.00000,186.20650,8.011867e-003,60.00000,8.650121e-006
 952.00000,186.40699,8.021725e-003,60.00000,8.651492e-006
 953.00000,186.60626,8.031605e-003,60.00000,8.652776e-006
 954.00000,186.80395,8.041084e-003,60.00000,8.653701e-006
 955.00000,187.00004,8.051561e-003,60.00000,8.655676e-006
 956.00000,187.19480,8.062056e-003,60.00000,8.657637e-006
 957.00000,187.38896,8.072705e-003,60.00000,8.659793e-006
 958.00000,187.58274,8.083095e-003,60.00000,8.661627e-006
 959.00000,187.77701,8.093782e-003,60.00000,8.663827e-006
 960.00000,187.97209,8.104662e-003,60.00000,8.666217e-006
 961.00000,188.16745,8.115331e-003,60.00000,8.668351e-006
 962.00000,188.36332,8.126156e-003,60.00000,8.670672e-006
 963.00000,188.56002,8.137047e-003,60.00000,8.673037e-006
 964.00000,188.75780,8.148041e-003,60.00000,8.675525e-006
 965.00000,188.95726,8.158713e-003,60.00000,8.677685e-006
 966.00000,189.15813,8.169497e-003,60.00000,8.679945e-006
 967.00000,189.35927,8.180676e-003,60.00000,8.682611e-006
 968.00000,189.56018,8.190975e-003,60.00000,8.684318e-006
 969.00000,189.76102,8.201949e-003,60.00000,8.686780e-006
 970.00000,189.96192,8.212664e-003,60.00000,8.688912e-006
 971.00000,190.16248,8.223519e-003,60.00000,8.691263e-006
 972.00000,190.36318,8.234717e-003,60.00000,8.693871e-006
 973.00000,190.56417,8.245057e-003,60.00000,8.695601e-006
 974.00000,190.76542,8.255589e-003,60.00000,8.697592e-006
 975.00000,190.96734,8.266045e-003,60.00000,8.699411e-006
 976.00000,191.16857,8.276026e-003,60.00000,8.700843e-006
 977.00000,191.36797,8.286353e-003,60.00000,8.702509e-006
 978.00000,191.56720,8.297124e-003,60.00000,8.704694e-006
 979.00000,191.76825,8.307612e-003,60.00000,8.706578e-006
 980.00000,191.97101,8.318745e-003,60.00000,8.709145e-006
 981.00000,192.17486,8.329161e-003,60.00000,8.710911e-006
 982.00000,192.37904,8.339447e-003,60.00000,8.712544e-006
 983.00000,192.58313,8.349538e-003,60.00000,8.714024e-006
 984.00000,192.78678,8.359897e-003,60.00000,8.715767e-006
 985.00000,192.98926,8.369862e-003,60.00000,8.717042e-006
 986.00000,193.19011,8.379976e-003,60.00000,8.718483e-006
 987.00000,193.38912,8.390103e-003,60.00000,8.719985e-006
 988.00000,193.58636,8.400038e-003,60.00000,8.721270e-006
 989.00000,193.78151,8.410076e-003,60.00000,8.722620e-006
 990.00000,193.97512,8.420243e-003,60.00000,8.724129e-006
 991.00000,194.16850,8.430733e-003,60.00000,8.725970e-006
 992.00000,194.36248,8.440930e-003,60.00000,8.727526e-006
 993.00000,194.55809,8.451519e-003,60.00000,8.729434e-006
 994.00000,194.75483,8.461975e-003,60.00000,8.731247e-006
 995.00000,194.95150,8.472410e-003,60.00000,8.733004e-006
 996.00000,195.14853,8.482686e-003,60.00000,8.734566e-006
 997.00000,195.34580,8.492892e-003,60.00000,8.736112e-006
 998.00000,195.54303,8.503390e-003,60.00000,8.737900e-006
 999.00000,195.74071,8.513435e-003,60.00000,8.739283e-006
1000.00000,195.93879,8.524040e-003,60.00000,8.741180e-006
1001.00000,196.13667,8.534267e-003,60.00000,8.742699e-006
1002.00000,196.33472,8.544548e-003,60.00000,8.744308e-006
1003.00000,196.53296,8.555521e-003,60.00000,8.746628e-006
1004.00000,196.73124,8.566131e-003,60.00000,8.748516e-006
1005.00000,196.93037,8.576700e-003,60.00000,8.750330e-006
1006.00000,197.12997,8.587090e-003,60.00000,8.752084e-006
1007.00000,197.32921,8.597266e-003,60.00000,8.753511e-006
1008.00000,197.52748,8.607698e-003,60.00000,8.755216e-006
1009.00000,197.72522,8.618122e-003,60.00000,8.756915e-006
1010.00000,197.92205,8.628345e-003,60.00000,8.758450e-006
1011.00000,198.11773,8.638549e-003,60.00000,8.759931e-006
1012.00000,198.31325,8.649390e-003,60.00000,8.762041e-006
1013.00000,198.50890,8.660072e-003,60.00000,8.763977e-006
1014.00000,198.70453,8.670441e-003,60.00000,8.765599e-006
1015.00000,198.89988,8.680454e-003,60.00000,8.766886e-006
1016.00000,199.09501,8.690587e-003,60.00000,8.768288e-006
1017.00000,199.29080,8.700655e-003,60.00000,8.769569e-006
1018.00000,199.48746,8.710740e-003,60.00000,8.770927e-006
1019.00000,199.68503,8.720624e-003,60.00000,8.772049e-006
1020.00000,199.88386,8.731217e-003,60.00000,8.773837e-006
1021.00000,200.08420,8.740781e-003,60.00000,8.774671e-006
1022.00000,200.28649,8.751239e-003,60.00000,8.776376e-006
1023.00000,200.48974,8.761046e-003,60.00000,8.777416e-006
1024.00000,200.69185,8.770806e-003,60.00000,8.778405e-006
1025.00000,200.89403,8.780667e-003,60.00000,8.779451e-006
1026.00000,201.09743,8.790780e-003,60.00000,8.780849e-006
1027.00000,201.30119,8.800413e-003,60.00000,8.781696e-006
1028.00000,201.50554,8.811056e-003,60.00000,8.783516e-006
1029.00000,201.70988,8.821180e-003,60.00000,8.784899e-006
1030.00000,201.91258,8.831488e-003,60.00000,8.786404e-006
1031.00000,202.11324,8.842132e-003,60.00000,8.788247e-006
1032.00000,202.31431,8.852493e-003,60.00000,8.789819e-006
1033.00000,202.51779,8.863395e-003,60.00000,8.791922e-006
1034.00000,202.72181,8.873737e-003,60.00000,8.793495e-006
1035.00000,202.92461,8.884462e-003,60.00000,8.795394e-006
1036.00000,203.12506,8.894550e-003,60.00000,8.796705e-006
1037.00000,203.32352,8.904968e-003,60.00000,8.798316e-006
1038.00000,203.52175,8.915191e-003,60.00000,8.799670e-006
1039.00000,203.72068,8.926041e-003,60.00000,8.801745e-006
1040.00000,203.92114,8.936746e-003,60.00000,8.803583e-006
1041.00000,204.12259,8.947114e-003,60.00000,8.805152e-006
1042.00000,204.32466,8.957745e-003,60.00000,8.806971e-006
1043.00000,204.52691,8.968128e-003,60.00000,8.808550e-006
1044.00000,204.72869,8.978273e-003,60.00000,8.809854e-006
1045.00000,204.93016,8.988790e-003,60.00000,8.811597e-006
1046.00000,205.13060,8.998563e-003,60.00000,8.812512e-006
1047.00000,205.32918,9.009066e-003,60.00000,8.814167e-006
1048.00000,205.52695,9.019125e-003,60.00000,8.815352e-006
1049.00000,205.72348,9.029121e-003,60.00000,8.816547e-006
1050.00000,205.91891,9.039395e-003,60.00000,8.817964e-006
1051.00000,206.11431,9.049578e-003,60.00000,8.819277e-006
1052.00000,206.30967,9.059844e-003,60.00000,8.820720e-006
1053.00000,206.50562,9.071056e-003,60.00000,8.823008e-006
1054.00000,206.70265,9.081626e-003,60.00000,8.824764e-006
1055.00000,206.90032,9.092350e-003,60.00000,8.826584e-006
1056.00000,207.09775,9.102701e-003,60.00000,8.828124e-006
1057.00000,207.29504,9.113164e-003,60.00000,8.829648e-006
1058.00000,207.49301,9.123936e-003,60.00000,8.831581e-006
1059.00000,207.69189,9.134414e-003,60.00000,8.833192e-006
1060.00000,207.88961,9.144416e-003,60.00000,8.834308e-006
1061.00000,208.08620,9.154872e-003,60.00000,8.835877e-006
1062.00000,208.28334,9.165564e-003,60.00000,8.837650e-006
1063.00000,208.48144,9.175810e-003,60.00000,8.839032e-006
1064.00000,208.68040,9.185737e-003,60.00000,8.840106e-006
1065.00000,208.87993,9.195000e-003,60.00000,8.840492e-006
1066.00000,209.07956,9.205019e-003,60.00000,8.841654e-006
1067.00000,209.27918,9.214583e-003,60.00000,8.842334e-006
1068.00000,209.47815,9.224241e-003,60.00000,8.843151e-006
1069.00000,209.67603,9.233699e-003,60.00000,8.843702e-006
1070.00000,209.87289,9.243407e-003,60.00000,8.844562e-006
1071.00000,210.06884,9.253727e-003,60.00000,8.845975e-006
1072.00000,210.26417,9.263480e-003,60.00000,8.846818e-006
1073.00000,210.46027,9.273431e-003,60.00000,8.847841e-006
1074.00000,210.65809,9.283082e-003,60.00000,8.848634e-006
1075.00000,210.85741,9.292739e-003,60.00000,8.849434e-006
1076.00000,211.05794,9.302267e-003,60.00000,8.850070e-006
1077.00000,211.25935,9.311742e-003,60.00000,8.850717e-006
1078.00000,211.46069,9.321172e-003,60.00000,8.851265e-006
1079.00000,211.66101,9.330392e-003,60.00000,8.851603e-006
1080.00000,211.86109,9.340638e-003,60.00000,8.852924e-006
1081.00000,212.06268,9.350426e-003,60.00000,8.853820e-006
1082.00000,212.26471,9.360416e-003,60.00000,8.854889e-006
1083.00000,212.46546,9.370285e-003,60.00000,8.855851e-006
1084.00000,212.66572,9.380645e-003,60.00000,8.857248e-006
1085.00000,212.86592,9.390571e-003,60.00000,8.858294e-006
1086.00000,213.06668,9.400624e-003,60.00000,8.859419e-006
1087.00000,213.26770,9.410139e-003,60.00000,8.860056e-006
1088.00000,213.46852,9.420349e-003,60.00000,8.861318e-006
1089.00000,213.66961,9.429778e-003,60.00000,8.861863e-006
1090.00000,213.87173,9.439801e-003,60.00000,8.862946e-006
1091.00000,214.07456,9.449700e-003,60.00000,8.863939e-006
1092.00000,214.27629,9.459508e-003,60.00000,8.864841e-006
1093.00000,214.47635,9.469411e-003,60.00000,8.865787e-006
1094.00000,214.67654,9.479216e-003,60.00000,8.866660e-006
1095.00000,214.87743,9.489061e-003,60.00000,8.867617e-006
1096.00000,215.07856,9.498732e-003,60.00000,8.868334e-006
1097.00000,215.28025,9.508121e-003,60.00000,8.868805e-006
1098.00000,215.48224,9.517748e-003,60.00000,8.869554e-006
1099.00000,215.68430,9.526974e-003,60.00000,8.869886e-006
1100.00000,215.88643,9.536200e-003,60.00000,8.870216e-006
1101.00000,216.08764,9.545232e-003,60.00000,8.870365e-006
1102.00000,216.28760,9.554510e-003,60.00000,8.870754e-006
1103.00000,216.48715,9.563696e-003,60.00000,8.871013e-006
1104.00000,216.68643,9.572717e-003,60.00000,8.871215e-006
1105.00000,216.88481,9.581837e-003,60.00000,8.871379e-006
1106.00000,217.08308,9.591024e-003,60.00000,8.871716e-006
1107.00000,217.28212,9.599471e-003,60.00000,8.871305e-006
1108.00000,217.48105,9.609319e-003,60.00000,8.872183e-006
1109.00000,217.68001,9.618747e-003,60.00000,8.872725e-006
1110.00000,217.87884,9.627983e-003,60.00000,8.873060e-006
1111.00000,218.07687,9.637311e-003,60.00000,8.873508e-006
1112.00000,218.27337,9.646303e-003,60.00000,8.873587e-006
1113.00000,218.46864,9.655644e-003,60.00000,8.874032e-006
1114.00000,218.66556,9.665623e-003,60.00000,8.875032e-006
1115.00000,218.86467,9.675617e-003,60.00000,8.876063e-006
1116.00000,219.06426,9.685266e-003,60.00000,8.876763e-006
1117.00000,219.26431,9.694521e-003,60.00000,8.877117e-006
1118.00000,219.46428,9.704404e-003,60.00000,8.878055e-006
1119.00000,219.66346,9.713798e-003,60.00000,8.878540e-006
1120.00000,219.86125,9.723241e-003,60.00000,8.879069e-006
1121.00000,220.05737,9.732589e-003,60.00000,8.879518e-006
1122.00000,220.25322,9.742206e-003,60.00000,8.880168e-006
1123.00000,220.44921,9.752093e-003,60.00000,8.881073e-006
1124.00000,220.64509,9.761521e-003,60.00000,8.881589e-006
1125.00000,220.84092,9.771183e-003,60.00000,8.882292e-006
1126.00000,221.03604,9.780656e-003,60.00000,8.882864e-006
1127.00000,221.23055,9.789887e-003,60.00000,8.883155e-006
1128.00000,221.42584,9.799877e-003,60.00000,8.884113e-006
1129.00000,221.62259,9.809265e-003,60.00000,8.884636e-006
1130.00000,221.81970,9.818572e-003,60.00000,8.885002e-006
1131.00000,222.01619,9.827870e-003,60.00000,8.885371e-006
1132.00000,222.21334,9.837289e-003,60.00000,8.885830e-006
1133.00000,222.41342,9.846700e-003,60.00000,8.886303e-006
1134.00000,222.61647,9.856518e-003,60.00000,8.887201e-006
1135.00000,222.81920,9.865507e-003,60.00000,8.887257e-006
1136.00000,223.01980,9.874658e-003,60.00000,8.887506e-006
1137.00000,223.21999,9.883325e-003,60.00000,8.887293e-006
1138.00000,223.42022,9.892763e-003,60.00000,8.887782e-006
1139.00000,223.62059,9.902525e-003,60.00000,8.888600e-006
1140.00000,223.82086,9.911602e-003,60.00000,8.888772e-006
1141.00000,224.02054,9.921573e-003,60.00000,8.889715e-006
1142.00000,224.22101,9.931013e-003,60.00000,8.890204e-006
1143.00000,224.42248,9.940229e-003,60.00000,8.890535e-006
1144.00000,224.62255,9.949319e-003,60.00000,8.890712e-006
1145.00000,224.82122,9.958684e-003,60.00000,8.891128e-006
1146.00000,225.02011,9.968054e-003,60.00000,8.891580e-006
1147.00000,225.22007,9.977491e-003,60.00000,8.892042e-006
1148.00000,225.42060,9.986794e-003,60.00000,8.892421e-006
1149.00000,225.62129,9.996110e-003,60.00000,8.892796e-006
1150.00000,225.82194,1.000554e-002,60.00000,8.893272e-006
1151.00000,226.02286,1.001522e-002,60.00000,8.893930e-006
1152.00000,226.22542,1.002390e-002,60.00000,8.893805e-006
1153.00000,226.42871,1.003328e-002,60.00000,8.894209e-006
1154.00000,226.63154,1.004244e-002,60.00000,8.894439e-006
1155.00000,226.83404,1.005174e-002,60.00000,8.894814e-006
1156.00000,227.03622,1.006104e-002,60.00000,8.895163e-006
1157.00000,227.23780,1.006986e-002,60.00000,8.895141e-006
1158.00000,227.43843,1.007899e-002,60.00000,8.895321e-006
1159.00000,227.63829,1.008825e-002,60.00000,8.895631e-006
1160.00000,227.83714,1.009746e-002,60.00000,8.895930e-006
1161.00000,228.03551,1.010674e-002,60.00000,8.896261e-006
1162.00000,228.23430,1.011596e-002,60.00000,8.896560e-006
1163.00000,228.43274,1.012496e-002,60.00000,8.896663e-006
1164.00000,228.63020,1.013401e-002,60.00000,8.896733e-006
1165.00000,228.82819,1.014312e-002,60.00000,8.896940e-006
1166.00000,229.02757,1.015230e-002,60.00000,8.897218e-006
1167.00000,229.22636,1.016124e-002,60.00000,8.897249e-006
1168.00000,229.42413,1.017032e-002,60.00000,8.897397e-006
1169.00000,229.62179,1.017997e-002,60.00000,8.898094e-006
1170.00000,229.81847,1.018901e-002,60.00000,8.898196e-006
1171.00000,230.01452,1.019842e-002,60.00000,8.898593e-006
1172.00000,230.21191,1.020791e-002,60.00000,8.899158e-006
1173.00000,230.41108,1.021761e-002,60.00000,8.899825e-006
1174.00000,230.61201,1.022664e-002,60.00000,8.899961e-006
1175.00000,230.81424,1.023561e-002,60.00000,8.900041e-006
1176.00000,231.01504,1.024447e-002,60.00000,8.900020e-006
1177.00000,231.21324,1.025330e-002,60.00000,8.899917e-006
1178.00000,231.41055,1.026205e-002,60.00000,8.899797e-006
1179.00000,231.60783,1.027133e-002,60.00000,8.900138e-006
1180.00000,231.80445,1.028028e-002,60.00000,8.900140e-006
1181.00000,232.00164,1.028910e-002,60.00000,8.900062e-006
1182.00000,232.20069,1.029790e-002,60.00000,8.900037e-006
1183.00000,232.39846,1.030706e-002,60.00000,8.900270e-006
1184.00000,232.59292,1.031600e-002,60.00000,8.900283e-006
1185.00000,232.78604,1.032583e-002,60.00000,8.901078e-006
1186.00000,232.97893,1.033524e-002,60.00000,8.901512e-006
1187.00000,233.17231,1.034495e-002,60.00000,8.902180e-006
1188.00000,233.36823,1.035447e-002,60.00000,8.902762e-006
1189.00000,233.56826,1.036358e-002,60.00000,8.902908e-006
1190.00000,233.77235,1.037273e-002,60.00000,8.903129e-006
1191.00000,233.97862,1.038122e-002,60.00000,8.902821e-006
1192.00000,234.18440,1.038992e-002,60.00000,8.902648e-006
1193.00000,234.38832,1.039833e-002,60.00000,8.902203e-006
1194.00000,234.58994,1.040671e-002,60.00000,8.901773e-006
1195.00000,234.78938,1.041549e-002,60.00000,8.901663e-006
1196.00000,234.98704,1.042395e-002,60.00000,8.901232e-006
1197.00000,235.18450,1.043259e-002,60.00000,8.901016e-006
1198.00000,235.38339,1.044172e-002,60.00000,8.901243e-006
1199.00000,235.58375,1.045057e-002,60.00000,8.901197e-006
1200.00000,235.78531,1.045941e-002,60.00000,8.901153e-006
1201.00000,235.98737,1.046829e-002,60.00000,8.901183e-006
1202.00000,236.18654,1.047706e-002,60.00000,8.901034e-006
1203.00000,236.38149,1.048590e-002,60.00000,8.900975e-006
1204.00000,236.57403,1.049541e-002,60.00000,8.901477e-006
1205.00000,236.76588,1.050486e-002,60.00000,8.901939e-006
1206.00000,236.95897,1.051437e-002,60.00000,8.902436e-006
1207.00000,237.15569,1.052424e-002,60.00000,8.903248e-006
1208.00000,237.35652,1.053373e-002,60.00000,8.903770e-006
1209.00000,237.56032,1.054320e-002,60.00000,8.904215e-006
1210.00000,237.76857,1.055266e-002,60.00000,8.904701e-006
1211.00000,237.98087,1.056162e-002,60.00000,8.904750e-006
1212.00000,238.19404,1.057099e-002,60.00000,8.905160e-006
1213.00000,238.40555,1.057981e-002,60.00000,8.905139e-006
1214.00000,238.61302,1.058828e-002,60.00000,8.904793e-006
1215.00000,238.81530,1.059693e-002,60.00000,8.904555e-006
1216.00000,239.01191,1.060519e-002,60.00000,8.904016e-006
1217.00000,239.20288,1.061458e-002,60.00000,8.904394e-006
1218.00000,239.38932,1.062411e-002,60.00000,8.904890e-006
1219.00000,239.57396,1.063396e-002,60.00000,8.905686e-006
1220.00000,239.76108,1.064444e-002,60.00000,8.906980e-006
1221.00000,239.95544,1.065458e-002,60.00000,8.908022e-006
1222.00000,240.15870,1.066432e-002,60.00000,8.908757e-006
1223.00000,240.36824,1.067334e-002,60.00000,8.908822e-006
1224.00000,240.57938,1.068191e-002,60.00000,8.908572e-006
1225.00000,240.78768,1.069088e-002,60.00000,8.908636e-006
1226.00000,240.99140,1.069938e-002,60.00000,8.908288e-006
1227.00000,241.18896,1.070816e-002,60.00000,8.908257e-006
1228.00000,241.37731,1.071689e-002,60.00000,8.908149e-006
1229.00000,241.55726,1.072632e-002,60.00000,8.908539e-006
1230.00000,241.73250,1.073543e-002,60.00000,8.908652e-006
1231.00000,241.90681,1.074626e-002,60.00000,8.910190e-006
1232.00000,242.08396,1.075654e-002,60.00000,8.911297e-006
1233.00000,242.26816,1.076662e-002,60.00000,8.912235e-006
1234.00000,242.46494,1.077760e-002,60.00000,8.913977e-006
1235.00000,242.67829,1.078722e-002,60.00000,8.914581e-006
1236.00000,242.90611,1.079576e-002,60.00000,8.914286e-006
1237.00000,243.13989,1.080279e-002,60.00000,8.912786e-006
1238.00000,243.36750,1.080978e-002,60.00000,8.911246e-006
1239.00000,243.57977,1.081711e-002,60.00000,8.909999e-006
1240.00000,243.77295,1.082480e-002,60.00000,8.908990e-006
1241.00000,243.94979,1.083348e-002,60.00000,8.908815e-006
1242.00000,244.11612,1.084392e-002,60.00000,8.909987e-006
1243.00000,244.27762,1.085408e-002,60.00000,8.910966e-006
1244.00000,244.43915,1.086493e-002,60.00000,8.912518e-006
1245.00000,244.60439,1.087643e-002,60.00000,8.914635e-006
1246.00000,244.77658,1.088817e-002,60.00000,8.916897e-006
1247.00000,244.95847,1.089922e-002,60.00000,8.918653e-006
1248.00000,245.15319,1.090990e-002,60.00000,8.920104e-006
1249.00000,245.36430,1.091989e-002,60.00000,8.920992e-006
1250.00000,245.59684,1.092882e-002,60.00000,8.921012e-006
1251.00000,245.85515,1.093734e-002,60.00000,8.920728e-006
1252.00000,246.12874,1.094416e-002,60.00000,8.919066e-006
1253.00000,246.39528,1.094963e-002,60.00000,8.916304e-006
1254.00000,246.63767,1.095636e-002,60.00000,8.914556e-006
1255.00000,246.85588,1.096375e-002,60.00000,8.913348e-006
1256.00000,247.05382,1.097177e-002,60.00000,8.912640e-006
1257.00000,247.23217,1.098071e-002,60.00000,8.912678e-006
1258.00000,247.39541,1.099034e-002,60.00000,8.913201e-006
1259.00000,247.54983,1.100124e-002,60.00000,8.914769e-006
1260.00000,247.70135,1.101248e-002,60.00000,8.916572e-006
1261.00000,247.85353,1.102469e-002,60.00000,8.919252e-006
1262.00000,248.00952,1.103685e-002,60.00000,8.921803e-006
1263.00000,248.17185,1.104837e-002,60.00000,8.923904e-006
1264.00000,248.34344,1.105978e-002,60.00000,8.925906e-006
1265.00000,248.52787,1.107103e-002,60.00000,8.927763e-006
1266.00000,248.73040,1.108124e-002,60.00000,8.928816e-006
1267.00000,248.95649,1.109120e-002,60.00000,8.929679e-006
1268.00000,249.21415,1.109913e-002,60.00000,8.928878e-006
1269.00000,249.50897,1.110532e-002,60.00000,8.926730e-006
1270.00000,249.81214,1.110948e-002,60.00000,8.922985e-006
1271.00000,250.08231,1.111349e-002,60.00000,8.919086e-006
1272.00000,250.31324,1.111909e-002,60.00000,8.916435e-006
1273.00000,250.51328,1.112609e-002,60.00000,8.914914e-006
1274.00000,250.68947,1.113483e-002,60.00000,8.914791e-006
1275.00000,250.84963,1.114477e-002,60.00000,8.915514e-006
1276.00000,251.00174,1.115514e-002,60.00000,8.916603e-006
1277.00000,251.15128,1.116680e-002,60.00000,8.918765e-006
1278.00000,251.30166,1.117850e-002,60.00000,8.920966e-006
1279.00000,251.45577,1.119059e-002,60.00000,8.923480e-006
1280.00000,251.61671,1.120218e-002,60.00000,8.925559e-006
1281.00000,251.78701,1.121316e-002,60.00000,8.927247e-006
1282.00000,251.97048,1.122455e-002,60.00000,8.929149e-006
1283.00000,252.17333,1.123508e-002,60.00000,8.930406e-006
1284.00000,252.40631,1.124464e-002,60.00000,8.930930e-006
1285.00000,252.67945,1.125122e-002,60.00000,8.929136e-006
1286.00000,252.98018,1.125660e-002,60.00000,8.926374e-006
1287.00000,253.26938,1.126116e-002,60.00000,8.923038e-006
1288.00000,253.51844,1.126624e-002,60.00000,8.920017e-006
1289.00000,253.72273,1.127253e-002,60.00000,8.918050e-006
1290.00000,253.89349,1.127967e-002,60.00000,8.916593e-006
1291.00000,254.04456,1.128913e-002,60.00000,8.916928e-006
1292.00000,254.18567,1.129972e-002,60.00000,8.918174e-006
1293.00000,254.32316,1.131069e-002,60.00000,8.919700e-006
1294.00000,254.46109,1.132255e-002,60.00000,8.921984e-006
1295.00000,254.60310,1.133480e-002,60.00000,8.924535e-006
1296.00000,254.75177,1.134610e-002,60.00000,8.926428e-006
1297.00000,254.90966,1.135810e-002,60.00000,8.928867e-006
1298.00000,255.07974,1.136926e-002,60.00000,8.930596e-006
1299.00000,255.26592,1.137935e-002,60.00000,8.931547e-006
1300.00000,255.47305,1.138879e-002,60.00000,8.931922e-006
1301.00000,255.70619,1.139696e-002,60.00000,8.931352e-006
1302.00000,255.97684,1.140359e-002,60.00000,8.929576e-006
1303.00000,256.29109,1.140734e-002,60.00000,8.925602e-006
1304.00000,256.59897,1.141024e-002,60.00000,8.920927e-006
1305.00000,256.86149,1.141401e-002,60.00000,8.916985e-006
1306.00000,257.07315,1.141902e-002,60.00000,8.914067e-006
1307.00000,257.24553,1.142594e-002,60.00000,8.912451e-006
1308.00000,257.39704,1.143486e-002,60.00000,8.912347e-006
1309.00000,257.53878,1.144479e-002,60.00000,8.913052e-006
1310.00000,257.67775,1.145746e-002,60.00000,8.915882e-006
1311.00000,257.81751,1.146989e-002,60.00000,8.918595e-006
1312.00000,257.96122,1.148168e-002,60.00000,8.920841e-006
1313.00000,258.11121,1.149295e-002,60.00000,8.922597e-006
1314.00000,258.26992,1.150400e-002,60.00000,8.924264e-006
1315.00000,258.43992,1.151377e-002,60.00000,8.924894e-006
1316.00000,258.62386,1.152205e-002,60.00000,8.924458e-006
1317.00000,258.82604,1.153052e-002,60.00000,8.924067e-006
1318.00000,259.05097,1.153749e-002,60.00000,8.922592e-006
1319.00000,259.30321,1.154311e-002,60.00000,8.920037e-006
1320.00000,259.59001,1.154858e-002,60.00000,8.917383e-006
1321.00000,259.90984,1.155222e-002,60.00000,8.913361e-006
1322.00000,260.21517,1.155461e-002,60.00000,8.908390e-006
1323.00000,260.46269,1.155910e-002,60.00000,8.905194e-006
1324.00000,260.65524,1.156433e-002,60.00000,8.902364e-006
1325.00000,260.81664,1.157289e-002,60.00000,8.901968e-006
1326.00000,260.96368,1.158253e-002,60.00000,8.902429e-006
1327.00000,261.10534,1.159303e-002,60.00000,8.903587e-006
1328.00000,261.24688,1.160428e-002,60.00000,8.905318e-006
1329.00000,261.39181,1.161555e-002,60.00000,8.907131e-006
1330.00000,261.54328,1.162605e-002,60.00000,8.908316e-006
1331.00000,261.70329,1.163681e-002,60.00000,8.909793e-006
1332.00000,261.87375,1.164687e-002,60.00000,8.910637e-006
1333.00000,262.05724,1.165585e-002,60.00000,8.910695e-006
1334.00000,262.25589,1.166437e-002,60.00000,8.910431e-006
1335.00000,262.47030,1.167085e-002,60.00000,8.908551e-006
1336.00000,262.70109,1.167670e-002,60.00000,8.906234e-006
1337.00000,262.95059,1.168186e-002,60.00000,8.903373e-006
1338.00000,263.22537,1.168518e-002,60.00000,8.899110e-006
1339.00000,263.52645,1.168681e-002,60.00000,8.893591e-006
1340.00000,263.83495,1.168788e-002,60.00000,8.887630e-006
1341.00000,264.17518,1.168886e-002,60.00000,8.881597e-006
1342.00000,264.53796,1.168657e-002,60.00000,8.873204e-006
1343.00000,264.79241,1.168532e-002,60.00000,8.866308e-006
1344.00000,264.94601,1.168668e-002,60.00000,8.860511e-006
1345.00000,265.06199,1.169308e-002,60.00000,8.858328e-006
1346.00000,265.16376,1.170246e-002,60.00000,8.858439e-006
1347.00000,265.25991,1.171362e-002,60.00000,8.859985e-006
1348.00000,265.35454,1.172526e-002,60.00000,8.861957e-006
1349.00000,265.45051,1.173795e-002,60.00000,8.864772e-006
1350.00000,265.54983,1.175088e-002,60.00000,8.867763e-006
1351.00000,265.65465,1.176322e-002,60.00000,8.870362e-006
1352.00000,265.76725,1.177528e-002,60.00000,8.872754e-006
1353.00000,265.88982,1.178705e-002,60.00000,8.875005e-006
1354.00000,266.02536,1.179714e-002,60.00000,8.875891e-006
1355.00000,266.17648,1.180666e-002,60.00000,8.876447e-006
1356.00000,266.34642,1.181433e-002,60.00000,8.875569e-006
1357.00000,266.53630,1.181906e-002,60.00000,8.872528e-006
1358.00000,266.74428,1.182396e-002,60.00000,8.869592e-006
1359.00000,266.96607,1.182654e-002,60.00000,8.864854e-006
1360.00000,267.19802,1.182925e-002,60.00000,8.860272e-006
1361.00000,267.43674,1.183050e-002,60.00000,8.854550e-006
1362.00000,267.67765,1.183253e-002,60.00000,8.849471e-006
1363.00000,267.91739,1.183386e-002,60.00000,8.843825e-006
1364.00000,268.15520,1.183597e-002,60.00000,8.838721e-006
1365.00000,268.39119,1.183797e-002,60.00000,8.833661e-006
1366.00000,268.62456,1.183920e-002,60.00000,8.827954e-006
1367.00000,268.85576,1.184149e-002,60.00000,8.823038e-006
1368.00000,269.08517,1.184359e-002,60.00000,8.818077e-006
1369.00000,269.31219,1.184586e-002,60.00000,8.813114e-006
1370.00000,269.53781,1.184732e-002,60.00000,8.807637e-006
1371.00000,269.76200,1.184948e-002,60.00000,8.802690e-006
1372.00000,269.98549,1.185147e-002,60.00000,8.797629e-006
1373.00000,270.20822,1.185302e-002,60.00000,8.792253e-006
1374.00000,270.42659,1.185463e-002,60.00000,8.786892e-006
1375.00000,270.63805,1.185534e-002,60.00000,8.780928e-006
1376.00000,270.83935,1.185781e-002,60.00000,8.776299e-006
1377.00000,271.02966,1.186079e-002,60.00000,8.771900e-006
1378.00000,271.21354,1.186480e-002,60.00000,8.768369e-006
1379.00000,271.39567,1.186905e-002,60.00000,8.764990e-006
1380.00000,271.57885,1.187341e-002,60.00000,8.761726e-006
1381.00000,271.76445,1.187788e-002,60.00000,8.758519e-006
1382.00000,271.95302,1.188152e-002,60.00000,8.754739e-006
1383.00000,272.14345,1.188512e-002,60.00000,8.750962e-006
1384.00000,272.33890,1.188855e-002,60.00000,8.746943e-006
1385.00000,272.54192,1.189153e-002,60.00000,8.742775e-006
1386.00000,272.74734,1.189369e-002,60.00000,8.737885e-006
1387.00000,272.95292,1.189498e-002,60.00000,8.732424e-006
1388.00000,273.16068,1.189734e-002,60.00000,8.727684e-006
1389.00000,273.37059,1.189974e-002,60.00000,8.723103e-006
1390.00000,273.58146,1.190182e-002,60.00000,8.718195e-006
1391.00000,273.79197,1.190344e-002,60.00000,8.712998e-006
1392.00000,274.00164,1.190417e-002,60.00000,8.707126e-006
1393.00000,274.20994,1.190643e-002,60.00000,8.702406e-006
1394.00000,274.41579,1.190823e-002,60.00000,8.697331e-006
1395.00000,274.61930,1.191041e-002,60.00000,8.692555e-006
1396.00000,274.82060,1.191208e-002,60.00000,8.687451e-006
1397.00000,275.01802,1.191296e-002,60.00000,8.681709e-006
1398.00000,275.21098,1.191559e-002,60.00000,8.677306e-006
1399.00000,275.40063,1.191830e-002,60.00000,8.672956e-006
1400.00000,275.58919,1.192150e-002,60.00000,8.668893e-006

