#EXPORTTYPE:       ,DATA ALL                        ,,,,
#FILE:             ,李院长 MgO-C C9-骨 C9-基 1400.ngb-dl9,,,,
#FORMAT:           ,NETZSCH5                        ,,,,
#FTYPE:            ,ANSI                            ,,,,
#IDENTITY:         ,C9-基                            ,,,,
#DECIMAL:          ,POINT                           ,,,,
#SEPARATOR:        ,COMMA                           ,,,,
#MTYPE:            ,DIL                             ,,,,
#INSTRUMENT:       ,NETZSCH DIL 402SU               ,,,,
#PROJECT:          ,123,,,,
#DATE/TIME:        ,2025/6/4 16:10:34 (UTC+8)       ,,,,
#CORR. FILE:       ,石墨炉 1400度-1.ngb-cl9             ,,,,
#TEMPCAL:          ,TCALZERO.TMX                    ,,,,
#LABORATORY:       ,wust                            ,,,,
#OPERATOR:         ,                                ,,,,
#REMARK:           ,                                ,,,,
#SAMPLE:           ,镁碳                              ,,,,
#SAMPLE LENGTH /mm:,25.08,,,,
#MATERIAL:         ,镁碳                              ,,,,
#MEASMODE:         ,Standard Expansion              ,,,,
#M.RANGE /μm:      ,50000,,,,
#CORR. CODE:       ,80,,,,
#RANGE:            ,25°C/5.0(K/min)/1403°C          ,,,,
#SEGMENT:          ,S1/2                            ,,,,
#SEG. 1:           ,25°C/5.0(K/min)/1403°C          ,,,,
#Tref:             ,30.0°C                          ,,,,
,,,,,
##Temp./°C,Time/min,dL/Lo,Force/N,Gas Flow(protective)/(ml/min),m. CTE(1)/(1/K)
50,4.64564,2.70E-04,0.29996,60,1.10E-05
51,4.81874,2.76E-04,0.30001,60,1.07E-05
52,4.98442,2.81E-04,0.30001,60,1.05E-05
53,5.14655,2.85E-04,0.30003,60,1.02E-05
54,5.30879,2.88E-04,0.30003,60,9.91E-06
55,5.47464,2.92E-04,0.29999,60,9.68E-06
56,5.64792,2.95E-04,0.29998,60,9.43E-06
57,5.83217,3.00E-04,0.30004,60,9.26E-06
58,6.0326,3.06E-04,0.29996,60,9.13E-06
59,6.25424,3.14E-04,0.30008,60,9.10E-06
60,6.49889,3.24E-04,0.3,60,9.11E-06
61,6.75886,3.35E-04,0.30004,60,9.18E-06
62,7.01386,3.46E-04,0.30005,60,9.25E-06
63,7.25107,3.56E-04,0.30005,60,9.28E-06
64,7.46891,3.66E-04,0.2999,60,9.30E-06
65,7.66939,3.72E-04,0.30003,60,9.19E-06
66,7.85555,3.78E-04,0.3,60,9.11E-06
67,8.03033,3.82E-04,0.29993,60,8.99E-06
68,8.19788,3.86E-04,0.30001,60,8.85E-06
69,8.36132,3.88E-04,0.29999,60,8.67E-06
70,8.52413,3.91E-04,0.30007,60,8.52E-06
71,8.68946,3.95E-04,0.29995,60,8.41E-06
72,8.86115,3.98E-04,0.3,60,8.27E-06
73,9.04349,4.02E-04,0.30005,60,8.18E-06
74,9.24096,4.07E-04,0.30005,60,8.12E-06
75,9.45794,4.15E-04,0.3,60,8.11E-06
76,9.69478,4.24E-04,0.29998,60,8.13E-06
77,9.9426,4.34E-04,0.2999,60,8.17E-06
78,10.18614,4.45E-04,0.30003,60,8.22E-06
79,10.41613,4.54E-04,0.29997,60,8.25E-06
80,10.63044,4.62E-04,0.29998,60,8.25E-06
81,10.8304,4.69E-04,0.29999,60,8.22E-06
82,11.01891,4.75E-04,0.29999,60,8.17E-06
83,11.19767,4.79E-04,0.30001,60,8.10E-06
84,11.36924,4.84E-04,0.30004,60,8.04E-06
85,11.53675,4.88E-04,0.29999,60,7.96E-06
86,11.70419,4.91E-04,0.29998,60,7.87E-06
87,11.87488,4.95E-04,0.3,60,7.80E-06
88,12.05264,4.99E-04,0.29996,60,7.75E-06
89,12.24117,5.05E-04,0.29999,60,7.70E-06
90,12.44477,5.11E-04,0.30003,60,7.69E-06
91,12.66636,5.20E-04,0.29996,60,7.70E-06
92,12.90325,5.30E-04,0.29993,60,7.74E-06
93,13.14559,5.40E-04,0.29997,60,7.78E-06
94,13.38261,5.51E-04,0.29997,60,7.82E-06
95,13.60846,5.59E-04,0.29998,60,7.83E-06
96,13.82116,5.67E-04,0.30005,60,7.83E-06
97,14.02163,5.74E-04,0.29997,60,7.82E-06
98,14.2121,5.79E-04,0.29999,60,7.78E-06
99,14.39454,5.84E-04,0.30004,60,7.74E-06
100,14.5715,5.89E-04,0.30002,60,7.70E-06
101,14.74513,5.94E-04,0.29997,60,7.66E-06
102,14.9186,5.99E-04,0.30005,60,7.62E-06
103,15.09485,6.03E-04,0.29997,60,7.58E-06
104,15.27729,6.09E-04,0.29996,60,7.55E-06
105,15.46937,6.16E-04,0.3,60,7.54E-06
106,15.67433,6.24E-04,0.30002,60,7.55E-06
107,15.89357,6.33E-04,0.3,60,7.57E-06
108,16.12355,6.42E-04,0.30002,60,7.59E-06
109,16.357,6.52E-04,0.3,60,7.62E-06
110,16.58786,6.63E-04,0.29999,60,7.66E-06
111,16.81205,6.71E-04,0.3,60,7.67E-06
112,17.02829,6.79E-04,0.3,60,7.68E-06
113,17.23686,6.87E-04,0.3,60,7.67E-06
114,17.43861,6.93E-04,0.3,60,7.66E-06
115,17.63464,7.00E-04,0.30001,60,7.64E-06
116,17.82614,7.06E-04,0.30001,60,7.62E-06
117,18.01486,7.12E-04,0.29998,60,7.61E-06
118,18.20235,7.18E-04,0.29999,60,7.59E-06
119,18.38975,7.25E-04,0.30007,60,7.58E-06
120,18.57839,7.32E-04,0.30003,60,7.57E-06
121,18.76933,7.39E-04,0.29994,60,7.57E-06
122,18.96369,7.44E-04,0.29995,60,7.54E-06
123,19.16281,7.52E-04,0.29995,60,7.55E-06
124,19.3677,7.61E-04,0.29994,60,7.57E-06
125,19.57768,7.71E-04,0.3,60,7.59E-06
126,19.79232,7.80E-04,0.30001,60,7.60E-06
127,20.01135,7.89E-04,0.29994,60,7.62E-06
128,20.2322,7.98E-04,0.29998,60,7.64E-06
129,20.45337,8.07E-04,0.3,60,7.65E-06
130,20.67438,8.15E-04,0.29998,60,7.65E-06
131,20.89373,8.24E-04,0.29992,60,7.66E-06
132,21.11025,8.31E-04,0.30002,60,7.66E-06
133,21.32364,8.37E-04,0.3,60,7.64E-06
134,21.53341,8.42E-04,0.29999,60,7.61E-06
135,21.73965,8.48E-04,0.30001,60,7.60E-06
136,21.94286,8.54E-04,0.29998,60,7.59E-06
137,22.1437,8.61E-04,0.30004,60,7.58E-06
138,22.3427,8.68E-04,0.29997,60,7.57E-06
139,22.54009,8.75E-04,0.3,60,7.56E-06
140,22.73694,8.81E-04,0.30002,60,7.56E-06
141,22.9334,8.88E-04,0.29998,60,7.55E-06
142,23.13038,8.96E-04,0.3,60,7.55E-06
143,23.32879,9.03E-04,0.29998,60,7.55E-06
144,23.52876,9.12E-04,0.3,60,7.56E-06
145,23.73073,9.20E-04,0.30001,60,7.57E-06
146,23.9348,9.29E-04,0.29996,60,7.58E-06
147,24.14142,9.39E-04,0.30001,60,7.60E-06
148,24.34971,9.48E-04,0.3,60,7.61E-06
149,24.55982,9.57E-04,0.30002,60,7.62E-06
150,24.77191,9.67E-04,0.30014,60,7.64E-06
151,24.98446,9.76E-04,0.30001,60,7.65E-06
152,25.19686,9.85E-04,0.29998,60,7.66E-06
153,25.40859,9.93E-04,0.30002,60,7.67E-06
154,25.61957,1.00E-03,0.30007,60,7.68E-06
155,25.82924,1.01E-03,0.30005,60,7.68E-06
156,26.03678,1.02E-03,0.30008,60,7.68E-06
157,26.2423,1.03E-03,0.30004,60,7.68E-06
158,26.44616,1.03E-03,0.30002,60,7.69E-06
159,26.64847,1.04E-03,0.30001,60,7.68E-06
160,26.84918,1.05E-03,0.30001,60,7.68E-06
161,27.04827,1.06E-03,0.29999,60,7.68E-06
162,27.24638,1.06E-03,0.30003,60,7.67E-06
163,27.44389,1.07E-03,0.30004,60,7.68E-06
164,27.641,1.08E-03,0.29998,60,7.67E-06
165,27.83808,1.09E-03,0.29999,60,7.68E-06
166,28.03514,1.09E-03,0.30003,60,7.68E-06
167,28.23241,1.10E-03,0.30001,60,7.68E-06
168,28.43028,1.11E-03,0.29997,60,7.68E-06
169,28.62905,1.12E-03,0.30001,60,7.69E-06
170,28.82815,1.13E-03,0.30002,60,7.70E-06
171,29.02767,1.14E-03,0.30001,60,7.71E-06
172,29.22746,1.15E-03,0.30006,60,7.71E-06
173,29.42772,1.15E-03,0.30002,60,7.72E-06
174,29.62843,1.16E-03,0.30001,60,7.72E-06
175,29.8289,1.17E-03,0.29998,60,7.73E-06
176,30.02883,1.18E-03,0.30007,60,7.73E-06
177,30.22849,1.19E-03,0.29998,60,7.74E-06
178,30.42776,1.20E-03,0.29998,60,7.74E-06
179,30.62671,1.20E-03,0.29999,60,7.74E-06
180,30.82554,1.21E-03,0.29998,60,7.74E-06
181,31.0244,1.22E-03,0.30006,60,7.74E-06
182,31.2232,1.23E-03,0.29999,60,7.75E-06
183,31.42199,1.24E-03,0.30001,60,7.75E-06
184,31.62106,1.24E-03,0.30002,60,7.75E-06
185,31.82053,1.25E-03,0.30002,60,7.75E-06
186,32.02005,1.26E-03,0.30003,60,7.76E-06
187,32.21958,1.27E-03,0.3,60,7.76E-06
188,32.41916,1.28E-03,0.29998,60,7.77E-06
189,32.61928,1.29E-03,0.3001,60,7.77E-06
190,32.81964,1.29E-03,0.30001,60,7.78E-06
191,33.01967,1.30E-03,0.29996,60,7.78E-06
192,33.21986,1.31E-03,0.29998,60,7.78E-06
193,33.42014,1.32E-03,0.3,60,7.79E-06
194,33.62067,1.33E-03,0.29998,60,7.79E-06
195,33.8208,1.33E-03,0.3,60,7.78E-06
196,34.02054,1.34E-03,0.29993,60,7.79E-06
197,34.22005,1.35E-03,0.30001,60,7.79E-06
198,34.41944,1.36E-03,0.30002,60,7.79E-06
199,34.61905,1.37E-03,0.30003,60,7.79E-06
200,34.81877,1.38E-03,0.30006,60,7.80E-06
201,35.01843,1.38E-03,0.29998,60,7.80E-06
202,35.2178,1.39E-03,0.30005,60,7.80E-06
203,35.41688,1.40E-03,0.30004,60,7.80E-06
204,35.61552,1.41E-03,0.29999,60,7.80E-06
205,35.81395,1.42E-03,0.29999,60,7.81E-06
206,36.01288,1.42E-03,0.29999,60,7.81E-06
207,36.21205,1.43E-03,0.30002,60,7.81E-06
208,36.41121,1.44E-03,0.30003,60,7.81E-06
209,36.61045,1.45E-03,0.30004,60,7.81E-06
210,36.81024,1.46E-03,0.30001,60,7.82E-06
211,37.01097,1.47E-03,0.29994,60,7.82E-06
212,37.21204,1.47E-03,0.30004,60,7.83E-06
213,37.41269,1.48E-03,0.29994,60,7.83E-06
214,37.61322,1.49E-03,0.3,60,7.82E-06
215,37.81353,1.50E-03,0.30002,60,7.83E-06
216,38.0138,1.51E-03,0.30003,60,7.83E-06
217,38.21426,1.51E-03,0.3,60,7.83E-06
218,38.41453,1.52E-03,0.30009,60,7.84E-06
219,38.61487,1.53E-03,0.29999,60,7.84E-06
220,38.81529,1.54E-03,0.29999,60,7.84E-06
221,39.01543,1.55E-03,0.30005,60,7.84E-06
222,39.2155,1.56E-03,0.30002,60,7.85E-06
223,39.41548,1.57E-03,0.29995,60,7.85E-06
224,39.61543,1.57E-03,0.29996,60,7.86E-06
225,39.81585,1.58E-03,0.30007,60,7.86E-06
226,40.01636,1.59E-03,0.29998,60,7.86E-06
227,40.21694,1.60E-03,0.3,60,7.87E-06
228,40.4181,1.61E-03,0.3,60,7.87E-06
229,40.61951,1.62E-03,0.29996,60,7.87E-06
230,40.82084,1.62E-03,0.3001,60,7.87E-06
231,41.02229,1.63E-03,0.29997,60,7.88E-06
232,41.22366,1.64E-03,0.29999,60,7.88E-06
233,41.4247,1.65E-03,0.30005,60,7.88E-06
234,41.62553,1.66E-03,0.30001,60,7.87E-06
235,41.82606,1.67E-03,0.3,60,7.88E-06
236,42.0266,1.67E-03,0.3,60,7.89E-06
237,42.22727,1.68E-03,0.29997,60,7.89E-06
238,42.4275,1.69E-03,0.29993,60,7.89E-06
239,42.62712,1.70E-03,0.30002,60,7.89E-06
240,42.82678,1.71E-03,0.29993,60,7.90E-06
241,43.02645,1.72E-03,0.29999,60,7.90E-06
242,43.22612,1.73E-03,0.3,60,7.90E-06
243,43.4259,1.73E-03,0.30002,60,7.90E-06
244,43.62566,1.74E-03,0.30001,60,7.90E-06
245,43.82549,1.75E-03,0.30005,60,7.91E-06
246,44.0257,1.76E-03,0.29997,60,7.91E-06
247,44.22634,1.77E-03,0.29992,60,7.92E-06
248,44.42737,1.78E-03,0.29997,60,7.92E-06
249,44.62834,1.79E-03,0.29997,60,7.93E-06
250,44.8293,1.80E-03,0.30006,60,7.93E-06
251,45.02991,1.80E-03,0.29996,60,7.94E-06
252,45.23001,1.81E-03,0.30001,60,7.94E-06
253,45.43,1.82E-03,0.30003,60,7.94E-06
254,45.63004,1.83E-03,0.30002,60,7.94E-06
255,45.82991,1.84E-03,0.30001,60,7.94E-06
256,46.02959,1.84E-03,0.30002,60,7.94E-06
257,46.22906,1.85E-03,0.29999,60,7.94E-06
258,46.42805,1.86E-03,0.29997,60,7.94E-06
259,46.6265,1.87E-03,0.30002,60,7.94E-06
260,46.82443,1.88E-03,0.29998,60,7.94E-06
261,47.02212,1.88E-03,0.30005,60,7.94E-06
262,47.21976,1.89E-03,0.3,60,7.94E-06
263,47.41694,1.90E-03,0.3,60,7.94E-06
264,47.61377,1.91E-03,0.30001,60,7.94E-06
265,47.81085,1.92E-03,0.30001,60,7.94E-06
266,48.00808,1.92E-03,0.30004,60,7.94E-06
267,48.20513,1.93E-03,0.29998,60,7.94E-06
268,48.40269,1.94E-03,0.30001,60,7.94E-06
269,48.60093,1.95E-03,0.30022,60,7.94E-06
270,48.79958,1.96E-03,0.29996,60,7.95E-06
271,48.99831,1.97E-03,0.30005,60,7.95E-06
272,49.19737,1.97E-03,0.29999,60,7.95E-06
273,49.39725,1.98E-03,0.29998,60,7.95E-06
274,49.59772,1.99E-03,0.30004,60,7.95E-06
275,49.79826,2.00E-03,0.29999,60,7.95E-06
276,49.99902,2.01E-03,0.30001,60,7.95E-06
277,50.19954,2.02E-03,0.29999,60,7.96E-06
278,50.39972,2.02E-03,0.30001,60,7.96E-06
279,50.5998,2.03E-03,0.29998,60,7.96E-06
280,50.79958,2.04E-03,0.30005,60,7.96E-06
281,50.99938,2.05E-03,0.3,60,7.96E-06
282,51.19951,2.06E-03,0.29995,60,7.97E-06
283,51.39995,2.06E-03,0.30007,60,7.96E-06
284,51.60002,2.07E-03,0.3,60,7.96E-06
285,51.80015,2.08E-03,0.30001,60,7.97E-06
286,52.00046,2.09E-03,0.29988,60,7.97E-06
287,52.20073,2.10E-03,0.29999,60,7.98E-06
288,52.40115,2.11E-03,0.3,60,7.97E-06
289,52.60215,2.12E-03,0.30006,60,7.98E-06
290,52.80394,2.12E-03,0.29997,60,7.98E-06
291,53.00598,2.13E-03,0.29997,60,7.98E-06
292,53.20846,2.14E-03,0.3,60,7.98E-06
293,53.41168,2.15E-03,0.29998,60,7.98E-06
294,53.61487,2.16E-03,0.29996,60,7.98E-06
295,53.81811,2.16E-03,0.30001,60,7.98E-06
296,54.02189,2.17E-03,0.29995,60,7.98E-06
297,54.22596,2.18E-03,0.29997,60,7.98E-06
298,54.43003,2.19E-03,0.30002,60,7.98E-06
299,54.63419,2.20E-03,0.30004,60,7.98E-06
300,54.838,2.20E-03,0.30002,60,7.98E-06
301,55.04132,2.21E-03,0.30003,60,7.97E-06
302,55.24447,2.22E-03,0.29997,60,7.97E-06
303,55.44746,2.23E-03,0.29997,60,7.97E-06
304,55.65009,2.23E-03,0.30001,60,7.97E-06
305,55.85269,2.24E-03,0.30001,60,7.97E-06
306,56.05526,2.25E-03,0.30002,60,7.96E-06
307,56.25769,2.26E-03,0.30004,60,7.96E-06
308,56.4604,2.26E-03,0.30003,60,7.96E-06
309,56.66327,2.27E-03,0.29999,60,7.96E-06
310,56.86572,2.28E-03,0.3,60,7.96E-06
311,57.06781,2.29E-03,0.29996,60,7.96E-06
312,57.26985,2.29E-03,0.29999,60,7.96E-06
313,57.47163,2.30E-03,0.30003,60,7.96E-06
314,57.67373,2.31E-03,0.29999,60,7.96E-06
315,57.87658,2.32E-03,0.29999,60,7.96E-06
316,58.08016,2.33E-03,0.30004,60,7.96E-06
317,58.28427,2.33E-03,0.30001,60,7.96E-06
318,58.48886,2.34E-03,0.30001,60,7.96E-06
319,58.69432,2.35E-03,0.30005,60,7.96E-06
320,58.90046,2.36E-03,0.30002,60,7.96E-06
321,59.10731,2.37E-03,0.30011,60,7.96E-06
322,59.31498,2.38E-03,0.30004,60,7.96E-06
323,59.52283,2.39E-03,0.29998,60,7.97E-06
324,59.73033,2.39E-03,0.3001,60,7.97E-06
325,59.9369,2.40E-03,0.30001,60,7.97E-06
326,60.14243,2.41E-03,0.29997,60,7.97E-06
327,60.34707,2.42E-03,0.29999,60,7.97E-06
328,60.55065,2.42E-03,0.30002,60,7.97E-06
329,60.75323,2.43E-03,0.30003,60,7.97E-06
330,60.95519,2.44E-03,0.30001,60,7.97E-06
331,61.15694,2.45E-03,0.30003,60,7.97E-06
332,61.35909,2.46E-03,0.29996,60,7.97E-06
333,61.56175,2.46E-03,0.30004,60,7.97E-06
334,61.76503,2.47E-03,0.29996,60,7.97E-06
335,61.96917,2.48E-03,0.30004,60,7.96E-06
336,62.17446,2.49E-03,0.3,60,7.96E-06
337,62.38029,2.49E-03,0.29998,60,7.96E-06
338,62.5859,2.50E-03,0.29994,60,7.96E-06
339,62.7912,2.51E-03,0.30002,60,7.96E-06
340,62.99578,2.52E-03,0.30001,60,7.96E-06
341,63.19918,2.52E-03,0.29994,60,7.95E-06
342,63.40124,2.53E-03,0.29998,60,7.95E-06
343,63.60203,2.54E-03,0.30006,60,7.95E-06
344,63.80178,2.54E-03,0.30001,60,7.94E-06
345,64.00116,2.55E-03,0.30002,60,7.94E-06
346,64.20066,2.56E-03,0.29996,60,7.94E-06
347,64.4005,2.57E-03,0.3,60,7.94E-06
348,64.60106,2.57E-03,0.29996,60,7.93E-06
349,64.80283,2.58E-03,0.29997,60,7.93E-06
350,65.00567,2.59E-03,0.3,60,7.93E-06
351,65.20956,2.59E-03,0.3,60,7.92E-06
352,65.41411,2.60E-03,0.29999,60,7.92E-06
353,65.61924,2.61E-03,0.30003,60,7.92E-06
354,65.82497,2.61E-03,0.30001,60,7.91E-06
355,66.03062,2.62E-03,0.2999,60,7.91E-06
356,66.23533,2.63E-03,0.30005,60,7.91E-06
357,66.43884,2.63E-03,0.29997,60,7.90E-06
358,66.64115,2.64E-03,0.3,60,7.90E-06
359,66.84276,2.65E-03,0.29996,60,7.89E-06
360,67.04418,2.66E-03,0.3,60,7.89E-06
361,67.24568,2.66E-03,0.29995,60,7.89E-06
362,67.44771,2.67E-03,0.29998,60,7.89E-06
363,67.65065,2.68E-03,0.3,60,7.89E-06
364,67.85493,2.68E-03,0.30001,60,7.88E-06
365,68.06023,2.69E-03,0.3,60,7.88E-06
366,68.26618,2.70E-03,0.30004,60,7.88E-06
367,68.47282,2.71E-03,0.30007,60,7.88E-06
368,68.67916,2.71E-03,0.29999,60,7.88E-06
369,68.885,2.72E-03,0.3,60,7.87E-06
370,69.09015,2.73E-03,0.29998,60,7.87E-06
371,69.29426,2.73E-03,0.29999,60,7.87E-06
372,69.49786,2.74E-03,0.29999,60,7.87E-06
373,69.70154,2.75E-03,0.29999,60,7.86E-06
374,69.90542,2.75E-03,0.29998,60,7.86E-06
375,70.10908,2.76E-03,0.30007,60,7.86E-06
376,70.31258,2.77E-03,0.29994,60,7.86E-06
377,70.5163,2.78E-03,0.3,60,7.86E-06
378,70.72034,2.78E-03,0.3,60,7.85E-06
379,70.92453,2.79E-03,0.29999,60,7.85E-06
380,71.12915,2.80E-03,0.29994,60,7.85E-06
381,71.33413,2.81E-03,0.30002,60,7.85E-06
382,71.53879,2.81E-03,0.30009,60,7.85E-06
383,71.74308,2.82E-03,0.29996,60,7.85E-06
384,71.94713,2.83E-03,0.3,60,7.85E-06
385,72.1515,2.84E-03,0.29988,60,7.85E-06
386,72.35616,2.84E-03,0.29997,60,7.84E-06
387,72.56075,2.85E-03,0.30002,60,7.84E-06
388,72.76495,2.86E-03,0.29997,60,7.84E-06
389,72.96893,2.87E-03,0.29997,60,7.84E-06
390,73.17292,2.87E-03,0.29999,60,7.84E-06
391,73.37672,2.88E-03,0.30004,60,7.84E-06
392,73.58057,2.89E-03,0.29997,60,7.84E-06
393,73.78428,2.89E-03,0.30002,60,7.84E-06
394,73.98751,2.90E-03,0.3,60,7.84E-06
395,74.19031,2.91E-03,0.30005,60,7.84E-06
396,74.39319,2.92E-03,0.30001,60,7.84E-06
397,74.5971,2.93E-03,0.30008,60,7.84E-06
398,74.80184,2.93E-03,0.29993,60,7.84E-06
399,75.00735,2.94E-03,0.30001,60,7.83E-06
400,75.2137,2.95E-03,0.29998,60,7.84E-06
401,75.42089,2.96E-03,0.30002,60,7.84E-06
402,75.62902,2.97E-03,0.30005,60,7.84E-06
403,75.83756,2.97E-03,0.30002,60,7.84E-06
404,76.04634,2.98E-03,0.29995,60,7.83E-06
405,76.25522,2.99E-03,0.3,60,7.83E-06
406,76.46335,2.99E-03,0.30003,60,7.83E-06
407,76.67004,3.00E-03,0.29997,60,7.82E-06
408,76.87584,3.01E-03,0.30003,60,7.82E-06
409,77.08076,3.01E-03,0.30002,60,7.82E-06
410,77.28445,3.02E-03,0.30008,60,7.82E-06
411,77.48736,3.03E-03,0.3001,60,7.81E-06
412,77.68989,3.03E-03,0.29998,60,7.81E-06
413,77.89247,3.04E-03,0.30003,60,7.81E-06
414,78.09597,3.05E-03,0.30002,60,7.80E-06
415,78.30052,3.05E-03,0.29997,60,7.80E-06
416,78.50571,3.06E-03,0.30003,60,7.80E-06
417,78.71151,3.07E-03,0.30003,60,7.80E-06
418,78.91774,3.08E-03,0.29999,60,7.80E-06
419,79.12384,3.08E-03,0.30004,60,7.80E-06
420,79.3293,3.09E-03,0.30004,60,7.79E-06
421,79.53356,3.10E-03,0.29996,60,7.79E-06
422,79.73679,3.10E-03,0.29996,60,7.79E-06
423,79.93913,3.11E-03,0.30001,60,7.79E-06
424,80.14058,3.12E-03,0.29998,60,7.79E-06
425,80.34126,3.13E-03,0.29999,60,7.79E-06
426,80.54165,3.13E-03,0.3,60,7.79E-06
427,80.74207,3.14E-03,0.29995,60,7.79E-06
428,80.9426,3.15E-03,0.30001,60,7.79E-06
429,81.14385,3.16E-03,0.29996,60,7.79E-06
430,81.34578,3.17E-03,0.30001,60,7.79E-06
431,81.54843,3.17E-03,0.30003,60,7.79E-06
432,81.75175,3.18E-03,0.3,60,7.79E-06
433,81.95602,3.19E-03,0.3,60,7.79E-06
434,82.16064,3.20E-03,0.29999,60,7.79E-06
435,82.365,3.20E-03,0.29998,60,7.79E-06
436,82.56921,3.21E-03,0.29997,60,7.79E-06
437,82.77323,3.22E-03,0.29999,60,7.79E-06
438,82.97681,3.23E-03,0.30002,60,7.78E-06
439,83.18008,3.23E-03,0.3,60,7.78E-06
440,83.38331,3.24E-03,0.30001,60,7.78E-06
441,83.58586,3.25E-03,0.3,60,7.78E-06
442,83.78819,3.26E-03,0.29994,60,7.78E-06
443,83.9908,3.26E-03,0.3,60,7.78E-06
444,84.1935,3.27E-03,0.29995,60,7.78E-06
445,84.39691,3.28E-03,0.29998,60,7.78E-06
446,84.60101,3.29E-03,0.30002,60,7.78E-06
447,84.80506,3.29E-03,0.30005,60,7.78E-06
448,85.00934,3.30E-03,0.30007,60,7.78E-06
449,85.2138,3.31E-03,0.30001,60,7.78E-06
450,85.41812,3.32E-03,0.30001,60,7.77E-06
451,85.62268,3.32E-03,0.29998,60,7.77E-06
452,85.82796,3.33E-03,0.30002,60,7.77E-06
453,86.03335,3.34E-03,0.29998,60,7.77E-06
454,86.23808,3.35E-03,0.30005,60,7.77E-06
455,86.44236,3.35E-03,0.29999,60,7.77E-06
456,86.64621,3.36E-03,0.30003,60,7.77E-06
457,86.84983,3.37E-03,0.29996,60,7.77E-06
458,87.05314,3.38E-03,0.3,60,7.78E-06
459,87.25616,3.39E-03,0.29999,60,7.78E-06
460,87.45935,3.39E-03,0.30001,60,7.77E-06
461,87.66295,3.40E-03,0.29993,60,7.78E-06
462,87.86709,3.41E-03,0.30002,60,7.78E-06
463,88.07168,3.42E-03,0.29999,60,7.78E-06
464,88.27678,3.43E-03,0.3,60,7.78E-06
465,88.48222,3.43E-03,0.29999,60,7.78E-06
466,88.68769,3.44E-03,0.29997,60,7.78E-06
467,88.89338,3.45E-03,0.30008,60,7.78E-06
468,89.09931,3.46E-03,0.30005,60,7.78E-06
469,89.30495,3.47E-03,0.29997,60,7.79E-06
470,89.51008,3.48E-03,0.3,60,7.79E-06
471,89.71504,3.49E-03,0.29999,60,7.79E-06
472,89.9198,3.49E-03,0.3,60,7.79E-06
473,90.12414,3.50E-03,0.30005,60,7.79E-06
474,90.32813,3.51E-03,0.3,60,7.79E-06
475,90.53241,3.52E-03,0.29997,60,7.79E-06
476,90.73731,3.53E-03,0.30001,60,7.80E-06
477,90.94277,3.53E-03,0.30007,60,7.80E-06
478,91.14874,3.54E-03,0.29997,60,7.80E-06
479,91.35493,3.55E-03,0.30001,60,7.80E-06
480,91.56147,3.56E-03,0.30001,60,7.80E-06
481,91.76815,3.57E-03,0.29996,60,7.80E-06
482,91.97446,3.58E-03,0.3,60,7.80E-06
483,92.18004,3.58E-03,0.3,60,7.80E-06
484,92.3845,3.59E-03,0.30005,60,7.80E-06
485,92.58819,3.60E-03,0.29999,60,7.80E-06
486,92.79144,3.61E-03,0.29997,60,7.80E-06
487,92.99496,3.61E-03,0.30001,60,7.80E-06
488,93.19917,3.62E-03,0.3,60,7.80E-06
489,93.4035,3.63E-03,0.30003,60,7.80E-06
490,93.60875,3.64E-03,0.29996,60,7.80E-06
491,93.81425,3.65E-03,0.30002,60,7.80E-06
492,94.01892,3.65E-03,0.29991,60,7.80E-06
493,94.22358,3.66E-03,0.3,60,7.80E-06
494,94.42763,3.67E-03,0.29997,60,7.80E-06
495,94.63021,3.68E-03,0.29994,60,7.80E-06
496,94.83178,3.69E-03,0.29997,60,7.80E-06
497,95.03305,3.70E-03,0.3,60,7.81E-06
498,95.2339,3.70E-03,0.29994,60,7.81E-06
499,95.4344,3.71E-03,0.30007,60,7.81E-06
500,95.63518,3.72E-03,0.30002,60,7.81E-06
501,95.83652,3.73E-03,0.30001,60,7.81E-06
502,96.03856,3.74E-03,0.30003,60,7.81E-06
503,96.24157,3.74E-03,0.29996,60,7.81E-06
504,96.44582,3.75E-03,0.30002,60,7.81E-06
505,96.65072,3.76E-03,0.30006,60,7.81E-06
506,96.85582,3.77E-03,0.29999,60,7.81E-06
507,97.06056,3.78E-03,0.30001,60,7.81E-06
508,97.26477,3.78E-03,0.30003,60,7.81E-06
509,97.46804,3.79E-03,0.30002,60,7.81E-06
510,97.67045,3.80E-03,0.29999,60,7.81E-06
511,97.87269,3.81E-03,0.30005,60,7.81E-06
512,98.07507,3.82E-03,0.29997,60,7.81E-06
513,98.27779,3.82E-03,0.29996,60,7.81E-06
514,98.4799,3.83E-03,0.30001,60,7.81E-06
515,98.6811,3.84E-03,0.29997,60,7.82E-06
516,98.88254,3.85E-03,0.30004,60,7.81E-06
517,99.0846,3.86E-03,0.3,60,7.81E-06
518,99.28672,3.86E-03,0.30001,60,7.82E-06
519,99.48878,3.87E-03,0.29995,60,7.82E-06
520,99.69114,3.88E-03,0.30001,60,7.82E-06
521,99.89378,3.89E-03,0.29998,60,7.82E-06
522,100.09707,3.90E-03,0.29998,60,7.82E-06
523,100.30111,3.90E-03,0.30005,60,7.82E-06
524,100.50512,3.91E-03,0.29998,60,7.82E-06
525,100.70937,3.92E-03,0.30003,60,7.82E-06
526,100.91414,3.93E-03,0.30004,60,7.82E-06
527,101.1196,3.94E-03,0.29999,60,7.82E-06
528,101.32551,3.95E-03,0.30002,60,7.82E-06
529,101.53051,3.95E-03,0.29999,60,7.82E-06
530,101.73442,3.96E-03,0.30011,60,7.82E-06
531,101.93744,3.97E-03,0.3,60,7.82E-06
532,102.13985,3.98E-03,0.29999,60,7.82E-06
533,102.34206,3.99E-03,0.30002,60,7.83E-06
534,102.54393,3.99E-03,0.30001,60,7.83E-06
535,102.74568,4.00E-03,0.30001,60,7.83E-06
536,102.9475,4.01E-03,0.3,60,7.83E-06
537,103.14925,4.02E-03,0.30003,60,7.83E-06
538,103.35141,4.03E-03,0.29999,60,7.83E-06
539,103.55416,4.04E-03,0.29998,60,7.83E-06
540,103.75748,4.04E-03,0.30001,60,7.83E-06
541,103.96135,4.05E-03,0.3,60,7.83E-06
542,104.16556,4.06E-03,0.3,60,7.83E-06
543,104.36969,4.07E-03,0.29997,60,7.83E-06
544,104.57376,4.08E-03,0.30001,60,7.83E-06
545,104.7779,4.09E-03,0.30001,60,7.84E-06
546,104.9819,4.09E-03,0.3,60,7.84E-06
547,105.18581,4.10E-03,0.30012,60,7.83E-06
548,105.3901,4.11E-03,0.3,60,7.84E-06
549,105.59485,4.12E-03,0.29999,60,7.84E-06
550,105.79989,4.12E-03,0.29999,60,7.84E-06
551,106.00509,4.13E-03,0.3,60,7.84E-06
552,106.2104,4.14E-03,0.29999,60,7.84E-06
553,106.41586,4.15E-03,0.3,60,7.84E-06
554,106.62079,4.16E-03,0.29999,60,7.84E-06
555,106.82458,4.16E-03,0.30002,60,7.83E-06
556,107.02745,4.17E-03,0.29996,60,7.84E-06
557,107.2305,4.18E-03,0.30004,60,7.84E-06
558,107.43445,4.19E-03,0.30003,60,7.84E-06
559,107.63884,4.20E-03,0.30002,60,7.84E-06
560,107.84325,4.20E-03,0.29994,60,7.84E-06
561,108.0476,4.21E-03,0.30003,60,7.84E-06
562,108.25212,4.22E-03,0.29999,60,7.84E-06
563,108.45637,4.23E-03,0.29999,60,7.84E-06
564,108.65953,4.24E-03,0.29998,60,7.84E-06
565,108.86209,4.24E-03,0.29999,60,7.84E-06
566,109.06469,4.25E-03,0.29996,60,7.84E-06
567,109.26739,4.26E-03,0.3,60,7.83E-06
568,109.46995,4.26E-03,0.3,60,7.83E-06
569,109.67227,4.27E-03,0.30001,60,7.83E-06
570,109.87447,4.28E-03,0.29997,60,7.83E-06
571,110.07642,4.29E-03,0.30002,60,7.83E-06
572,110.27824,4.29E-03,0.29998,60,7.83E-06
573,110.47994,4.30E-03,0.29994,60,7.83E-06
574,110.68104,4.31E-03,0.29999,60,7.83E-06
575,110.88189,4.32E-03,0.30001,60,7.83E-06
576,111.08279,4.32E-03,0.29997,60,7.83E-06
577,111.28364,4.33E-03,0.29992,60,7.83E-06
578,111.48467,4.34E-03,0.30001,60,7.82E-06
579,111.68631,4.34E-03,0.30001,60,7.82E-06
580,111.88848,4.35E-03,0.30001,60,7.82E-06
581,112.09086,4.36E-03,0.30002,60,7.82E-06
582,112.2935,4.37E-03,0.30001,60,7.82E-06
583,112.49617,4.37E-03,0.29995,60,7.82E-06
584,112.69868,4.38E-03,0.30004,60,7.81E-06
585,112.90086,4.39E-03,0.30003,60,7.81E-06
586,113.10246,4.39E-03,0.30004,60,7.81E-06
587,113.30379,4.40E-03,0.3,60,7.81E-06
588,113.50505,4.41E-03,0.29995,60,7.81E-06
589,113.70646,4.41E-03,0.29998,60,7.81E-06
590,113.90812,4.42E-03,0.3,60,7.80E-06
591,114.10971,4.43E-03,0.30004,60,7.80E-06
592,114.31179,4.43E-03,0.30004,60,7.80E-06
593,114.51433,4.44E-03,0.29998,60,7.80E-06
594,114.71726,4.45E-03,0.30001,60,7.80E-06
595,114.92035,4.46E-03,0.29996,60,7.80E-06
596,115.12347,4.46E-03,0.30003,60,7.80E-06
597,115.32667,4.47E-03,0.29999,60,7.80E-06
598,115.52999,4.48E-03,0.30001,60,7.79E-06
599,115.73329,4.48E-03,0.29999,60,7.79E-06
600,115.93615,4.49E-03,0.30005,60,7.79E-06
601,116.13854,4.50E-03,0.3,60,7.79E-06
602,116.34069,4.51E-03,0.30005,60,7.79E-06
603,116.54313,4.51E-03,0.29998,60,7.79E-06
604,116.74572,4.52E-03,0.30003,60,7.79E-06
605,116.94835,4.53E-03,0.29999,60,7.79E-06
606,117.15122,4.54E-03,0.29998,60,7.79E-06
607,117.35448,4.55E-03,0.30003,60,7.79E-06
608,117.55807,4.55E-03,0.3,60,7.79E-06
609,117.76187,4.56E-03,0.29999,60,7.79E-06
610,117.96565,4.57E-03,0.30003,60,7.79E-06
611,118.16922,4.58E-03,0.30002,60,7.79E-06
612,118.37283,4.58E-03,0.30003,60,7.79E-06
613,118.57621,4.59E-03,0.29997,60,7.79E-06
614,118.77968,4.60E-03,0.29995,60,7.79E-06
615,118.98361,4.61E-03,0.29999,60,7.79E-06
616,119.18831,4.61E-03,0.29996,60,7.79E-06
617,119.39392,4.62E-03,0.29996,60,7.79E-06
618,119.60015,4.63E-03,0.30001,60,7.79E-06
619,119.80703,4.64E-03,0.29999,60,7.79E-06
620,120.0143,4.65E-03,0.29998,60,7.79E-06
621,120.22179,4.65E-03,0.29998,60,7.79E-06
622,120.42914,4.66E-03,0.30002,60,7.79E-06
623,120.6355,4.67E-03,0.29998,60,7.79E-06
624,120.84052,4.68E-03,0.29996,60,7.79E-06
625,121.04461,4.68E-03,0.29998,60,7.79E-06
626,121.24807,4.69E-03,0.29997,60,7.79E-06
627,121.45131,4.70E-03,0.3,60,7.79E-06
628,121.6541,4.70E-03,0.29996,60,7.78E-06
629,121.85562,4.71E-03,0.3,60,7.78E-06
630,122.05601,4.72E-03,0.30006,60,7.78E-06
631,122.25597,4.73E-03,0.30004,60,7.78E-06
632,122.45654,4.73E-03,0.30006,60,7.78E-06
633,122.65847,4.74E-03,0.29999,60,7.78E-06
634,122.86182,4.75E-03,0.29995,60,7.78E-06
635,123.06602,4.76E-03,0.3,60,7.78E-06
636,123.27085,4.76E-03,0.30001,60,7.78E-06
637,123.47569,4.77E-03,0.29998,60,7.78E-06
638,123.67992,4.78E-03,0.3,60,7.78E-06
639,123.88347,4.79E-03,0.30003,60,7.78E-06
640,124.08638,4.79E-03,0.29998,60,7.78E-06
641,124.289,4.80E-03,0.29999,60,7.78E-06
642,124.49152,4.81E-03,0.29997,60,7.78E-06
643,124.69409,4.82E-03,0.3,60,7.78E-06
644,124.89673,4.83E-03,0.29999,60,7.78E-06
645,125.09892,4.83E-03,0.30002,60,7.78E-06
646,125.30025,4.84E-03,0.30003,60,7.78E-06
647,125.50085,4.85E-03,0.30002,60,7.78E-06
648,125.70031,4.86E-03,0.30004,60,7.78E-06
649,125.89867,4.86E-03,0.29994,60,7.78E-06
650,126.09651,4.87E-03,0.30004,60,7.78E-06
651,126.29488,4.88E-03,0.29992,60,7.78E-06
652,126.49402,4.89E-03,0.30001,60,7.78E-06
653,126.69414,4.89E-03,0.30004,60,7.77E-06
654,126.89485,4.90E-03,0.3001,60,7.77E-06
655,127.09567,4.91E-03,0.29998,60,7.77E-06
656,127.29688,4.92E-03,0.3,60,7.77E-06
657,127.49865,4.92E-03,0.29989,60,7.77E-06
658,127.70101,4.93E-03,0.29999,60,7.78E-06
659,127.90385,4.94E-03,0.30004,60,7.78E-06
660,128.1072,4.95E-03,0.29998,60,7.78E-06
661,128.31205,4.96E-03,0.3,60,7.78E-06
662,128.51875,4.97E-03,0.3,60,7.78E-06
663,128.72567,4.97E-03,0.3,60,7.78E-06
664,128.93196,4.98E-03,0.29995,60,7.78E-06
665,129.13742,4.99E-03,0.29998,60,7.78E-06
666,129.3416,5.00E-03,0.3,60,7.78E-06
667,129.54488,5.00E-03,0.3,60,7.78E-06
668,129.7474,5.01E-03,0.30002,60,7.78E-06
669,129.94968,5.02E-03,0.30002,60,7.78E-06
670,130.15255,5.03E-03,0.29998,60,7.78E-06
671,130.3575,5.03E-03,0.30003,60,7.78E-06
672,130.5656,5.04E-03,0.29999,60,7.78E-06
673,130.7758,5.05E-03,0.30006,60,7.77E-06
674,130.98703,5.06E-03,0.3,60,7.78E-06
675,131.19767,5.07E-03,0.29996,60,7.78E-06
676,131.40688,5.07E-03,0.29999,60,7.78E-06
677,131.61541,5.08E-03,0.30008,60,7.78E-06
678,131.82387,5.09E-03,0.30004,60,7.78E-06
679,132.0332,5.10E-03,0.30001,60,7.78E-06
680,132.244,5.11E-03,0.30001,60,7.78E-06
681,132.45528,5.11E-03,0.29997,60,7.78E-06
682,132.66674,5.12E-03,0.3,60,7.78E-06
683,132.87772,5.13E-03,0.29999,60,7.78E-06
684,133.08735,5.13E-03,0.3,60,7.77E-06
685,133.29578,5.14E-03,0.30001,60,7.77E-06
686,133.50247,5.15E-03,0.30001,60,7.77E-06
687,133.7071,5.16E-03,0.3,60,7.78E-06
688,133.91046,5.17E-03,0.29998,60,7.77E-06
689,134.11278,5.17E-03,0.30005,60,7.77E-06
690,134.31426,5.18E-03,0.3,60,7.78E-06
691,134.51578,5.19E-03,0.30001,60,7.77E-06
692,134.71771,5.20E-03,0.30004,60,7.77E-06
693,134.91986,5.20E-03,0.30004,60,7.77E-06
694,135.12237,5.21E-03,0.30004,60,7.77E-06
695,135.32498,5.22E-03,0.3,60,7.77E-06
696,135.52728,5.23E-03,0.3,60,7.77E-06
697,135.72977,5.23E-03,0.30001,60,7.77E-06
698,135.93314,5.24E-03,0.29996,60,7.77E-06
699,136.13718,5.25E-03,0.30001,60,7.77E-06
700,136.34174,5.25E-03,0.29995,60,7.77E-06
701,136.54601,5.26E-03,0.30001,60,7.77E-06
702,136.74939,5.27E-03,0.30001,60,7.77E-06
703,136.95205,5.28E-03,0.30001,60,7.77E-06
704,137.15368,5.28E-03,0.30001,60,7.76E-06
705,137.35351,5.29E-03,0.3,60,7.76E-06
706,137.55067,5.30E-03,0.29999,60,7.76E-06
707,137.74537,5.30E-03,0.29998,60,7.76E-06
708,137.93853,5.31E-03,0.30001,60,7.76E-06
709,138.13161,5.32E-03,0.29999,60,7.76E-06
710,138.3253,5.32E-03,0.30001,60,7.76E-06
711,138.52065,5.33E-03,0.29998,60,7.75E-06
712,138.71811,5.34E-03,0.30002,60,7.75E-06
713,138.91709,5.34E-03,0.3,60,7.75E-06
714,139.11777,5.35E-03,0.30003,60,7.75E-06
715,139.31956,5.36E-03,0.29998,60,7.75E-06
716,139.52163,5.37E-03,0.29999,60,7.75E-06
717,139.72395,5.37E-03,0.29999,60,7.75E-06
718,139.92617,5.38E-03,0.30005,60,7.75E-06
719,140.12772,5.39E-03,0.30007,60,7.75E-06
720,140.32807,5.39E-03,0.3,60,7.74E-06
721,140.5276,5.40E-03,0.29999,60,7.74E-06
722,140.72687,5.41E-03,0.29996,60,7.74E-06
723,140.92622,5.41E-03,0.30002,60,7.74E-06
724,141.12531,5.42E-03,0.30003,60,7.74E-06
725,141.32415,5.43E-03,0.29994,60,7.74E-06
726,141.52322,5.43E-03,0.3,60,7.74E-06
727,141.72226,5.44E-03,0.29996,60,7.73E-06
728,141.92149,5.45E-03,0.30005,60,7.73E-06
729,142.12046,5.45E-03,0.3,60,7.73E-06
730,142.31863,5.46E-03,0.29999,60,7.73E-06
731,142.51606,5.47E-03,0.30001,60,7.73E-06
732,142.71304,5.48E-03,0.29998,60,7.73E-06
733,142.90983,5.48E-03,0.29998,60,7.73E-06
734,143.10684,5.49E-03,0.30002,60,7.73E-06
735,143.30424,5.50E-03,0.29997,60,7.73E-06
736,143.50178,5.50E-03,0.30001,60,7.72E-06
737,143.69923,5.51E-03,0.29993,60,7.72E-06
738,143.89652,5.52E-03,0.30003,60,7.72E-06
739,144.09376,5.52E-03,0.29998,60,7.72E-06
740,144.29136,5.53E-03,0.29994,60,7.72E-06
741,144.48909,5.54E-03,0.29997,60,7.72E-06
742,144.68695,5.54E-03,0.29997,60,7.72E-06
743,144.88525,5.55E-03,0.29999,60,7.72E-06
744,145.08368,5.56E-03,0.30002,60,7.72E-06
745,145.28209,5.57E-03,0.3,60,7.72E-06
746,145.48032,5.58E-03,0.3,60,7.72E-06
747,145.6784,5.58E-03,0.29998,60,7.72E-06
748,145.87625,5.59E-03,0.29998,60,7.72E-06
749,146.07383,5.60E-03,0.29996,60,7.72E-06
750,146.27094,5.61E-03,0.30004,60,7.72E-06
751,146.46763,5.62E-03,0.29999,60,7.72E-06
752,146.66353,5.62E-03,0.29998,60,7.72E-06
753,146.8584,5.63E-03,0.29999,60,7.72E-06
754,147.05248,5.64E-03,0.29996,60,7.72E-06
755,147.24646,5.65E-03,0.3,60,7.72E-06
756,147.44084,5.66E-03,0.3,60,7.72E-06
757,147.63598,5.67E-03,0.30002,60,7.73E-06
758,147.83297,5.67E-03,0.29998,60,7.73E-06
759,148.03195,5.68E-03,0.29998,60,7.73E-06
760,148.23232,5.69E-03,0.29997,60,7.73E-06
761,148.43421,5.70E-03,0.29996,60,7.73E-06
762,148.6371,5.71E-03,0.29997,60,7.73E-06
763,148.84037,5.72E-03,0.29998,60,7.73E-06
764,149.0436,5.73E-03,0.3,60,7.73E-06
765,149.24595,5.74E-03,0.29999,60,7.74E-06
766,149.44706,5.75E-03,0.30002,60,7.74E-06
767,149.64713,5.75E-03,0.30001,60,7.74E-06
768,149.84612,5.76E-03,0.29996,60,7.74E-06
769,150.04411,5.77E-03,0.30003,60,7.74E-06
770,150.24137,5.78E-03,0.30003,60,7.74E-06
771,150.43849,5.79E-03,0.29998,60,7.74E-06
772,150.63572,5.80E-03,0.30006,60,7.75E-06
773,150.83302,5.81E-03,0.30001,60,7.75E-06
774,151.0302,5.82E-03,0.29999,60,7.75E-06
775,151.227,5.83E-03,0.30002,60,7.75E-06
776,151.42309,5.84E-03,0.30003,60,7.75E-06
777,151.61863,5.84E-03,0.29999,60,7.76E-06
778,151.81419,5.85E-03,0.29992,60,7.76E-06
779,152.00989,5.86E-03,0.29997,60,7.76E-06
780,152.20567,5.88E-03,0.30001,60,7.77E-06
781,152.40161,5.89E-03,0.3,60,7.77E-06
782,152.59807,5.90E-03,0.30002,60,7.77E-06
783,152.79495,5.91E-03,0.29998,60,7.78E-06
784,152.99215,5.92E-03,0.29998,60,7.78E-06
785,153.1895,5.93E-03,0.3,60,7.78E-06
786,153.38702,5.94E-03,0.3,60,7.79E-06
787,153.58476,5.95E-03,0.30002,60,7.79E-06
788,153.78238,5.96E-03,0.30004,60,7.79E-06
789,153.97943,5.97E-03,0.30001,60,7.80E-06
790,154.1761,5.98E-03,0.29996,60,7.80E-06
791,154.37287,5.99E-03,0.30002,60,7.81E-06
792,154.56955,6.00E-03,0.29999,60,7.81E-06
793,154.76622,6.01E-03,0.29999,60,7.81E-06
794,154.96334,6.02E-03,0.30005,60,7.82E-06
795,155.16115,6.03E-03,0.29999,60,7.82E-06
796,155.35956,6.04E-03,0.3,60,7.82E-06
797,155.55807,6.05E-03,0.30002,60,7.82E-06
798,155.75597,6.06E-03,0.29994,60,7.83E-06
799,155.9526,6.07E-03,0.30004,60,7.83E-06
800,156.14816,6.08E-03,0.3,60,7.84E-06
801,156.34359,6.09E-03,0.30001,60,7.84E-06
802,156.53957,6.11E-03,0.30001,60,7.84E-06
803,156.73617,6.12E-03,0.3,60,7.85E-06
804,156.93391,6.13E-03,0.29998,60,7.85E-06
805,157.13242,6.14E-03,0.3,60,7.86E-06
806,157.33091,6.15E-03,0.29996,60,7.86E-06
807,157.53018,6.16E-03,0.29997,60,7.87E-06
808,157.73008,6.17E-03,0.30003,60,7.87E-06
809,157.92953,6.18E-03,0.29998,60,7.88E-06
810,158.12852,6.20E-03,0.30002,60,7.88E-06
811,158.32742,6.21E-03,0.3,60,7.88E-06
812,158.52614,6.22E-03,0.30001,60,7.89E-06
813,158.72524,6.23E-03,0.29997,60,7.89E-06
814,158.92533,6.24E-03,0.29998,60,7.90E-06
815,159.12604,6.25E-03,0.30003,60,7.90E-06
816,159.32684,6.26E-03,0.30001,60,7.91E-06
817,159.52769,6.28E-03,0.30002,60,7.91E-06
818,159.72866,6.29E-03,0.30009,60,7.91E-06
819,159.92982,6.30E-03,0.29998,60,7.92E-06
820,160.13114,6.31E-03,0.29988,60,7.92E-06
821,160.33243,6.32E-03,0.30002,60,7.93E-06
822,160.53309,6.33E-03,0.3,60,7.93E-06
823,160.73264,6.34E-03,0.30003,60,7.93E-06
824,160.93093,6.35E-03,0.29998,60,7.94E-06
825,161.12823,6.36E-03,0.29997,60,7.94E-06
826,161.32534,6.37E-03,0.30002,60,7.94E-06
827,161.52347,6.38E-03,0.30007,60,7.95E-06
828,161.72342,6.39E-03,0.30004,60,7.95E-06
829,161.92497,6.41E-03,0.30001,60,7.96E-06
830,162.12742,6.42E-03,0.30003,60,7.96E-06
831,162.33069,6.43E-03,0.30005,60,7.96E-06
832,162.53429,6.44E-03,0.29999,60,7.96E-06
833,162.73721,6.45E-03,0.30002,60,7.97E-06
834,162.93943,6.46E-03,0.30005,60,7.97E-06
835,163.1414,6.47E-03,0.30002,60,7.97E-06
836,163.34279,6.48E-03,0.30012,60,7.97E-06
837,163.54249,6.49E-03,0.30003,60,7.97E-06
838,163.74009,6.49E-03,0.29997,60,7.98E-06
839,163.93637,6.50E-03,0.29998,60,7.98E-06
840,164.13184,6.51E-03,0.29997,60,7.98E-06
841,164.32663,6.53E-03,0.30002,60,7.98E-06
842,164.52106,6.54E-03,0.30001,60,7.99E-06
843,164.71603,6.55E-03,0.30004,60,7.99E-06
844,164.91177,6.56E-03,0.3,60,7.99E-06
845,165.10833,6.56E-03,0.29997,60,7.99E-06
846,165.30565,6.57E-03,0.30001,60,8.00E-06
847,165.50308,6.58E-03,0.30004,60,8.00E-06
848,165.70089,6.60E-03,0.30001,60,8.00E-06
849,165.89865,6.61E-03,0.3,60,8.01E-06
850,166.0961,6.62E-03,0.30009,60,8.01E-06
851,166.29372,6.63E-03,0.30006,60,8.02E-06
852,166.49094,6.64E-03,0.3,60,8.02E-06
853,166.68721,6.66E-03,0.30004,60,8.03E-06
854,166.88288,6.67E-03,0.30003,60,8.03E-06
855,167.07868,6.68E-03,0.30005,60,8.03E-06
856,167.27491,6.69E-03,0.3,60,8.04E-06
857,167.4712,6.70E-03,0.29997,60,8.04E-06
858,167.66791,6.71E-03,0.29999,60,8.04E-06
859,167.86561,6.72E-03,0.30001,60,8.05E-06
860,168.06388,6.73E-03,0.30001,60,8.05E-06
861,168.26259,6.74E-03,0.30005,60,8.05E-06
862,168.46129,6.75E-03,0.3,60,8.06E-06
863,168.65965,6.76E-03,0.3,60,8.06E-06
864,168.85805,6.77E-03,0.3,60,8.06E-06
865,169.0564,6.78E-03,0.29997,60,8.06E-06
866,169.25472,6.79E-03,0.30002,60,8.07E-06
867,169.45328,6.80E-03,0.30001,60,8.07E-06
868,169.65191,6.82E-03,0.30002,60,8.07E-06
869,169.85001,6.83E-03,0.29998,60,8.08E-06
870,170.04786,6.84E-03,0.29997,60,8.08E-06
871,170.24538,6.85E-03,0.30001,60,8.08E-06
872,170.44266,6.86E-03,0.29998,60,8.09E-06
873,170.64044,6.87E-03,0.30001,60,8.09E-06
874,170.83807,6.88E-03,0.30003,60,8.09E-06
875,171.03566,6.89E-03,0.30005,60,8.10E-06
876,171.23456,6.90E-03,0.30001,60,8.10E-06
877,171.43481,6.92E-03,0.3,60,8.11E-06
878,171.63579,6.93E-03,0.3,60,8.11E-06
879,171.83705,6.94E-03,0.29997,60,8.12E-06
880,172.03843,6.95E-03,0.3,60,8.12E-06
881,172.23992,6.96E-03,0.3,60,8.12E-06
882,172.44166,6.97E-03,0.29997,60,8.13E-06
883,172.64396,6.98E-03,0.29998,60,8.13E-06
884,172.84683,6.99E-03,0.29996,60,8.13E-06
885,173.05024,7.00E-03,0.3,60,8.13E-06
886,173.25365,7.01E-03,0.30003,60,8.13E-06
887,173.45558,7.02E-03,0.30002,60,8.14E-06
888,173.65581,7.03E-03,0.29998,60,8.14E-06
889,173.8549,7.04E-03,0.29999,60,8.14E-06
890,174.05362,7.05E-03,0.30002,60,8.14E-06
891,174.2527,7.06E-03,0.30007,60,8.14E-06
892,174.45257,7.07E-03,0.3,60,8.14E-06
893,174.6528,7.08E-03,0.29995,60,8.15E-06
894,174.85383,7.09E-03,0.29997,60,8.15E-06
895,175.05576,7.10E-03,0.3,60,8.15E-06
896,175.25815,7.11E-03,0.30001,60,8.15E-06
897,175.46059,7.12E-03,0.29998,60,8.15E-06
898,175.66188,7.13E-03,0.30001,60,8.15E-06
899,175.86194,7.14E-03,0.30002,60,8.15E-06
900,176.06114,7.14E-03,0.30003,60,8.15E-06
901,176.25935,7.15E-03,0.30003,60,8.16E-06
902,176.45695,7.16E-03,0.3,60,8.16E-06
903,176.65455,7.17E-03,0.29999,60,8.16E-06
904,176.85228,7.18E-03,0.30001,60,8.16E-06
905,177.04889,7.19E-03,0.30004,60,8.16E-06
906,177.24492,7.20E-03,0.30003,60,8.17E-06
907,177.44137,7.21E-03,0.29994,60,8.17E-06
908,177.6383,7.22E-03,0.29996,60,8.17E-06
909,177.83558,7.23E-03,0.29995,60,8.17E-06
910,178.03307,7.24E-03,0.29999,60,8.18E-06
911,178.23161,7.26E-03,0.30004,60,8.18E-06
912,178.43147,7.27E-03,0.29999,60,8.18E-06
913,178.63151,7.28E-03,0.3,60,8.19E-06
914,178.83106,7.29E-03,0.29996,60,8.19E-06
915,179.03032,7.30E-03,0.29995,60,8.19E-06
916,179.22913,7.31E-03,0.29998,60,8.19E-06
917,179.42765,7.32E-03,0.30003,60,8.20E-06
918,179.62618,7.33E-03,0.29996,60,8.20E-06
919,179.82447,7.34E-03,0.30001,60,8.20E-06
920,180.02262,7.35E-03,0.30004,60,8.20E-06
921,180.22073,7.36E-03,0.30003,60,8.21E-06
922,180.41854,7.37E-03,0.29999,60,8.21E-06
923,180.61596,7.38E-03,0.29998,60,8.21E-06
924,180.81367,7.39E-03,0.3,60,8.21E-06
925,181.01208,7.40E-03,0.29998,60,8.22E-06
926,181.21114,7.41E-03,0.30001,60,8.22E-06
927,181.41047,7.42E-03,0.30001,60,8.22E-06
928,181.60924,7.43E-03,0.3,60,8.22E-06
929,181.80767,7.44E-03,0.3,60,8.22E-06
930,182.00609,7.45E-03,0.29999,60,8.22E-06
931,182.20453,7.46E-03,0.30002,60,8.22E-06
932,182.40315,7.47E-03,0.30003,60,8.22E-06
933,182.60202,7.48E-03,0.30001,60,8.23E-06
934,182.80026,7.49E-03,0.29999,60,8.23E-06
935,182.99731,7.50E-03,0.29999,60,8.23E-06
936,183.19367,7.51E-03,0.30001,60,8.23E-06
937,183.39052,7.52E-03,0.3,60,8.23E-06
938,183.58848,7.53E-03,0.29995,60,8.24E-06
939,183.78733,7.54E-03,0.29999,60,8.24E-06
940,183.98685,7.55E-03,0.29998,60,8.24E-06
941,184.18685,7.56E-03,0.30007,60,8.24E-06
942,184.38735,7.57E-03,0.29995,60,8.25E-06
943,184.58851,7.58E-03,0.3,60,8.25E-06
944,184.78984,7.59E-03,0.29996,60,8.25E-06
945,184.99117,7.60E-03,0.30001,60,8.26E-06
946,185.19287,7.61E-03,0.3,60,8.26E-06
947,185.39488,7.63E-03,0.29997,60,8.26E-06
948,185.59648,7.64E-03,0.3,60,8.26E-06
949,185.79773,7.65E-03,0.30001,60,8.27E-06
950,185.99875,7.66E-03,0.3,60,8.27E-06
951,186.19954,7.67E-03,0.30001,60,8.27E-06
952,186.40088,7.68E-03,0.30001,60,8.27E-06
953,186.6026,7.69E-03,0.3,60,8.28E-06
954,186.80432,7.70E-03,0.29998,60,8.28E-06
955,187.00613,7.71E-03,0.30003,60,8.28E-06
956,187.20832,7.72E-03,0.30002,60,8.28E-06
957,187.40977,7.73E-03,0.30003,60,8.28E-06
958,187.61023,7.74E-03,0.30001,60,8.29E-06
959,187.81072,7.75E-03,0.3,60,8.29E-06
960,188.0114,7.76E-03,0.30004,60,8.29E-06
961,188.21219,7.77E-03,0.30002,60,8.30E-06
962,188.41297,7.78E-03,0.30001,60,8.30E-06
963,188.6132,7.80E-03,0.3,60,8.30E-06
964,188.81203,7.81E-03,0.29997,60,8.30E-06
965,189.00959,7.82E-03,0.30005,60,8.31E-06
966,189.20701,7.83E-03,0.30001,60,8.31E-06
967,189.40494,7.84E-03,0.30003,60,8.31E-06
968,189.60291,7.85E-03,0.29998,60,8.32E-06
969,189.80049,7.86E-03,0.3,60,8.32E-06
970,189.99795,7.87E-03,0.30004,60,8.32E-06
971,190.19632,7.88E-03,0.29999,60,8.32E-06
972,190.39562,7.89E-03,0.29996,60,8.33E-06
973,190.59497,7.90E-03,0.29995,60,8.33E-06
974,190.7939,7.91E-03,0.30002,60,8.33E-06
975,190.99321,7.92E-03,0.3,60,8.33E-06
976,191.19299,7.94E-03,0.30006,60,8.34E-06
977,191.39214,7.95E-03,0.30001,60,8.34E-06
978,191.5903,7.96E-03,0.30005,60,8.34E-06
979,191.78786,7.97E-03,0.29998,60,8.34E-06
980,191.98482,7.98E-03,0.29999,60,8.35E-06
981,192.18102,7.99E-03,0.30004,60,8.35E-06
982,192.37724,8.00E-03,0.29998,60,8.35E-06
983,192.57428,8.01E-03,0.30003,60,8.35E-06
984,192.77225,8.02E-03,0.30004,60,8.36E-06
985,192.9705,8.03E-03,0.30002,60,8.36E-06
986,193.16847,8.04E-03,0.3,60,8.36E-06
987,193.36562,8.05E-03,0.30003,60,8.36E-06
988,193.56204,8.07E-03,0.30005,60,8.37E-06
989,193.75688,8.08E-03,0.30001,60,8.37E-06
990,193.94997,8.09E-03,0.30004,60,8.37E-06
991,194.14289,8.10E-03,0.3,60,8.37E-06
992,194.33731,8.11E-03,0.3,60,8.38E-06
993,194.53385,8.12E-03,0.30003,60,8.38E-06
994,194.73175,8.13E-03,0.30005,60,8.38E-06
995,194.93099,8.14E-03,0.29996,60,8.39E-06
996,195.13186,8.16E-03,0.30002,60,8.39E-06
997,195.33438,8.17E-03,0.29999,60,8.39E-06
998,195.53881,8.18E-03,0.29996,60,8.40E-06
999,195.74205,8.19E-03,0.30002,60,8.40E-06
1000,195.94314,8.20E-03,0.30003,60,8.40E-06
1001,196.14449,8.21E-03,0.3,60,8.40E-06
1002,196.34628,8.22E-03,0.3,60,8.40E-06
1003,196.54802,8.23E-03,0.30001,60,8.41E-06
1004,196.74992,8.24E-03,0.29999,60,8.41E-06
1005,196.95201,8.25E-03,0.30001,60,8.41E-06
1006,197.15378,8.26E-03,0.30004,60,8.41E-06
1007,197.35518,8.27E-03,0.3,60,8.41E-06
1008,197.5563,8.28E-03,0.3,60,8.42E-06
1009,197.75755,8.29E-03,0.29997,60,8.42E-06
1010,197.95926,8.30E-03,0.3,60,8.42E-06
1011,198.16144,8.31E-03,0.30001,60,8.42E-06
1012,198.36457,8.32E-03,0.3,60,8.43E-06
1013,198.5686,8.34E-03,0.29997,60,8.43E-06
1014,198.7734,8.35E-03,0.30002,60,8.43E-06
1015,198.97823,8.36E-03,0.30001,60,8.43E-06
1016,199.18142,8.37E-03,0.29998,60,8.44E-06
1017,199.38167,8.38E-03,0.30001,60,8.44E-06
1018,199.58023,8.39E-03,0.29998,60,8.44E-06
1019,199.7785,8.40E-03,0.29995,60,8.44E-06
1020,199.97629,8.41E-03,0.29996,60,8.44E-06
1021,200.17246,8.42E-03,0.30003,60,8.45E-06
1022,200.36721,8.43E-03,0.3,60,8.45E-06
1023,200.56203,8.44E-03,0.30011,60,8.45E-06
1024,200.75773,8.45E-03,0.30003,60,8.45E-06
1025,200.95407,8.46E-03,0.30002,60,8.45E-06
1026,201.1511,8.47E-03,0.30004,60,8.46E-06
1027,201.34898,8.48E-03,0.30003,60,8.46E-06
1028,201.54746,8.49E-03,0.30001,60,8.46E-06
1029,201.74672,8.50E-03,0.30001,60,8.46E-06
1030,201.9468,8.51E-03,0.30004,60,8.46E-06
1031,202.14656,8.53E-03,0.29998,60,8.47E-06
1032,202.34563,8.54E-03,0.30001,60,8.47E-06
1033,202.54453,8.55E-03,0.30002,60,8.47E-06
1034,202.74396,8.56E-03,0.29993,60,8.47E-06
1035,202.94325,8.57E-03,0.30001,60,8.48E-06
1036,203.14172,8.58E-03,0.29999,60,8.48E-06
1037,203.33944,8.59E-03,0.29998,60,8.48E-06
1038,203.53658,8.60E-03,0.30008,60,8.48E-06
1039,203.73317,8.61E-03,0.30007,60,8.48E-06
1040,203.92944,8.62E-03,0.29999,60,8.49E-06
1041,204.12602,8.63E-03,0.29999,60,8.49E-06
1042,204.32183,8.64E-03,0.30001,60,8.49E-06
1043,204.51651,8.65E-03,0.3,60,8.49E-06
1044,204.7106,8.66E-03,0.29997,60,8.49E-06
1045,204.9044,8.67E-03,0.29994,60,8.50E-06
1046,205.09783,8.68E-03,0.29998,60,8.50E-06
1047,205.29159,8.70E-03,0.29996,60,8.50E-06
1048,205.48637,8.71E-03,0.3,60,8.50E-06
1049,205.68245,8.72E-03,0.29998,60,8.50E-06
1050,205.87956,8.73E-03,0.29995,60,8.51E-06
1051,206.07777,8.74E-03,0.30001,60,8.51E-06
1052,206.27711,8.75E-03,0.30001,60,8.51E-06
1053,206.47726,8.76E-03,0.30002,60,8.51E-06
1054,206.67777,8.77E-03,0.30003,60,8.51E-06
1055,206.87866,8.78E-03,0.3,60,8.52E-06
1056,207.08029,8.79E-03,0.3,60,8.52E-06
1057,207.28302,8.80E-03,0.3,60,8.52E-06
1058,207.4864,8.81E-03,0.3,60,8.52E-06
1059,207.69044,8.82E-03,0.3,60,8.52E-06
1060,207.89495,8.83E-03,0.29998,60,8.53E-06
1061,208.09962,8.84E-03,0.30005,60,8.53E-06
1062,208.30445,8.85E-03,0.30003,60,8.53E-06
1063,208.50915,8.86E-03,0.29998,60,8.53E-06
1064,208.71364,8.88E-03,0.30003,60,8.53E-06
1065,208.91723,8.89E-03,0.30002,60,8.54E-06
1066,209.11887,8.90E-03,0.29999,60,8.54E-06
1067,209.31918,8.91E-03,0.30002,60,8.54E-06
1068,209.51978,8.92E-03,0.29996,60,8.54E-06
1069,209.71985,8.93E-03,0.29998,60,8.55E-06
1070,209.91901,8.94E-03,0.30002,60,8.55E-06
1071,210.11851,8.95E-03,0.29999,60,8.55E-06
1072,210.3198,8.96E-03,0.3,60,8.55E-06
1073,210.52225,8.97E-03,0.30003,60,8.56E-06
1074,210.72514,8.98E-03,0.3,60,8.56E-06
1075,210.92803,9.00E-03,0.29998,60,8.56E-06
1076,211.12886,9.01E-03,0.30002,60,8.56E-06
1077,211.32703,9.02E-03,0.29999,60,8.56E-06
1078,211.5245,9.03E-03,0.29997,60,8.56E-06
1079,211.722,9.04E-03,0.30001,60,8.57E-06
1080,211.9197,9.05E-03,0.30002,60,8.57E-06
1081,212.11795,9.06E-03,0.30001,60,8.57E-06
1082,212.31652,9.07E-03,0.3,60,8.57E-06
1083,212.51486,9.08E-03,0.29997,60,8.57E-06
1084,212.71317,9.09E-03,0.3,60,8.58E-06
1085,212.91103,9.10E-03,0.30003,60,8.58E-06
1086,213.10809,9.11E-03,0.3,60,8.58E-06
1087,213.30439,9.12E-03,0.30001,60,8.58E-06
1088,213.49962,9.13E-03,0.29999,60,8.58E-06
1089,213.69429,9.14E-03,0.3,60,8.59E-06
1090,213.8897,9.15E-03,0.3,60,8.59E-06
1091,214.08579,9.16E-03,0.3,60,8.59E-06
1092,214.28215,9.17E-03,0.3,60,8.59E-06
1093,214.47904,9.18E-03,0.29991,60,8.59E-06
1094,214.67622,9.20E-03,0.29999,60,8.60E-06
1095,214.8734,9.21E-03,0.29999,60,8.60E-06
1096,215.07041,9.22E-03,0.30002,60,8.60E-06
1097,215.26738,9.23E-03,0.30002,60,8.60E-06
1098,215.46465,9.24E-03,0.30002,60,8.60E-06
1099,215.6618,9.25E-03,0.3,60,8.60E-06
1100,215.85852,9.26E-03,0.29998,60,8.60E-06
1101,216.0546,9.27E-03,0.29997,60,8.60E-06
1102,216.2497,9.28E-03,0.3,60,8.61E-06
1103,216.44443,9.29E-03,0.30002,60,8.61E-06
1104,216.64012,9.30E-03,0.29999,60,8.61E-06
1105,216.83689,9.30E-03,0.29996,60,8.61E-06
1106,217.03425,9.31E-03,0.30002,60,8.61E-06
1107,217.23271,9.32E-03,0.29999,60,8.61E-06
1108,217.43259,9.33E-03,0.3,60,8.61E-06
1109,217.63355,9.34E-03,0.30002,60,8.61E-06
1110,217.83501,9.35E-03,0.29999,60,8.61E-06
1111,218.03649,9.36E-03,0.30001,60,8.62E-06
1112,218.23725,9.37E-03,0.29997,60,8.62E-06
1113,218.4379,9.38E-03,0.3,60,8.62E-06
1114,218.63903,9.39E-03,0.29999,60,8.62E-06
1115,218.84029,9.40E-03,0.3,60,8.62E-06
1116,219.04173,9.41E-03,0.30001,60,8.62E-06
1117,219.24329,9.42E-03,0.30002,60,8.62E-06
1118,219.44362,9.43E-03,0.30003,60,8.62E-06
1119,219.6438,9.44E-03,0.3,60,8.62E-06
1120,219.8459,9.45E-03,0.29999,60,8.63E-06
1121,220.04921,9.46E-03,0.30001,60,8.63E-06
1122,220.25261,9.47E-03,0.30003,60,8.63E-06
1123,220.45529,9.48E-03,0.3,60,8.63E-06
1124,220.65593,9.49E-03,0.29996,60,8.63E-06
1125,220.85494,9.50E-03,0.29999,60,8.63E-06
1126,221.05546,9.51E-03,0.29999,60,8.63E-06
1127,221.25779,9.52E-03,0.30001,60,8.63E-06
1128,221.45975,9.53E-03,0.30005,60,8.63E-06
1129,221.66088,9.53E-03,0.30003,60,8.63E-06
1130,221.86174,9.54E-03,0.29999,60,8.63E-06
1131,222.06248,9.55E-03,0.29998,60,8.63E-06
1132,222.26245,9.56E-03,0.30002,60,8.63E-06
1133,222.46148,9.57E-03,0.30007,60,8.63E-06
1134,222.6596,9.58E-03,0.3,60,8.63E-06
1135,222.85676,9.59E-03,0.3,60,8.63E-06
1136,223.05349,9.60E-03,0.30002,60,8.63E-06
1137,223.25035,9.61E-03,0.29999,60,8.63E-06
1138,223.44726,9.61E-03,0.30002,60,8.63E-06
1139,223.64467,9.62E-03,0.29999,60,8.63E-06
1140,223.84291,9.63E-03,0.3,60,8.63E-06
1141,224.04163,9.64E-03,0.30003,60,8.63E-06
1142,224.24252,9.65E-03,0.29997,60,8.63E-06
1143,224.4444,9.66E-03,0.30001,60,8.63E-06
1144,224.6438,9.67E-03,0.29997,60,8.63E-06
1145,224.84132,9.68E-03,0.30002,60,8.63E-06
1146,225.03843,9.68E-03,0.29999,60,8.63E-06
1147,225.23537,9.69E-03,0.30002,60,8.63E-06
1148,225.43196,9.70E-03,0.3,60,8.63E-06
1149,225.62819,9.71E-03,0.3,60,8.63E-06
1150,225.82443,9.72E-03,0.29998,60,8.63E-06
1151,226.0203,9.73E-03,0.30002,60,8.63E-06
1152,226.21663,9.74E-03,0.3,60,8.63E-06
1153,226.41442,9.75E-03,0.29997,60,8.63E-06
1154,226.61332,9.75E-03,0.30007,60,8.63E-06
1155,226.81289,9.76E-03,0.3,60,8.63E-06
1156,227.01328,9.77E-03,0.3,60,8.63E-06
1157,227.2133,9.78E-03,0.30002,60,8.63E-06
1158,227.41286,9.79E-03,0.29998,60,8.63E-06
1159,227.61193,9.79E-03,0.30002,60,8.63E-06
1160,227.81058,9.80E-03,0.29998,60,8.63E-06
1161,228.01077,9.81E-03,0.3,60,8.63E-06
1162,228.21003,9.82E-03,0.3,60,8.63E-06
1163,228.40634,9.83E-03,0.29999,60,8.63E-06
1164,228.60273,9.84E-03,0.3,60,8.63E-06
1165,228.79982,9.84E-03,0.3,60,8.63E-06
1166,228.99794,9.85E-03,0.30004,60,8.63E-06
1167,229.19758,9.86E-03,0.30002,60,8.63E-06
1168,229.39963,9.87E-03,0.3,60,8.63E-06
1169,229.60407,9.88E-03,0.29998,60,8.63E-06
1170,229.81027,9.88E-03,0.30002,60,8.63E-06
1171,230.02019,9.89E-03,0.30002,60,8.63E-06
1172,230.23079,9.90E-03,0.30002,60,8.62E-06
1173,230.43839,9.91E-03,0.29999,60,8.62E-06
1174,230.64359,9.91E-03,0.29997,60,8.62E-06
1175,230.84691,9.92E-03,0.30002,60,8.62E-06
1176,231.04835,9.93E-03,0.30001,60,8.62E-06
1177,231.24854,9.94E-03,0.29997,60,8.62E-06
1178,231.44907,9.94E-03,0.30002,60,8.62E-06
1179,231.6509,9.95E-03,0.30002,60,8.62E-06
1180,231.85311,9.96E-03,0.3,60,8.62E-06
1181,232.05459,9.97E-03,0.29997,60,8.62E-06
1182,232.25586,9.97E-03,0.3,60,8.61E-06
1183,232.45719,9.98E-03,0.29998,60,8.61E-06
1184,232.6582,9.99E-03,0.3,60,8.61E-06
1185,232.85839,1.00E-02,0.30002,60,8.61E-06
1186,233.05819,1.00E-02,0.30002,60,8.61E-06
1187,233.25752,1.00E-02,0.29998,60,8.61E-06
1188,233.45551,1.00E-02,0.30001,60,8.61E-06
1189,233.65116,1.00E-02,0.29998,60,8.61E-06
1190,233.84524,1.00E-02,0.3,60,8.61E-06
1191,234.04004,1.00E-02,0.30003,60,8.61E-06
1192,234.23689,1.01E-02,0.29998,60,8.61E-06
1193,234.43503,1.01E-02,0.30004,60,8.61E-06
1194,234.6341,1.01E-02,0.30001,60,8.60E-06
1195,234.83293,1.01E-02,0.3,60,8.60E-06
1196,235.02932,1.01E-02,0.30001,60,8.60E-06
1197,235.22265,1.01E-02,0.29997,60,8.60E-06
1198,235.41545,1.01E-02,0.29989,60,8.60E-06
1199,235.61111,1.01E-02,0.30001,60,8.60E-06
1200,235.81053,1.01E-02,0.29997,60,8.60E-06
1201,236.01214,1.01E-02,0.30003,60,8.60E-06
1202,236.21525,1.01E-02,0.29999,60,8.60E-06
1203,236.41975,1.01E-02,0.3,60,8.60E-06
1204,236.62137,1.01E-02,0.30004,60,8.60E-06
1205,236.81811,1.01E-02,0.29999,60,8.60E-06
1206,237.01365,1.02E-02,0.29999,60,8.59E-06
1207,237.20898,1.02E-02,0.30003,60,8.59E-06
1208,237.40512,1.02E-02,0.30002,60,8.59E-06
1209,237.60365,1.02E-02,0.30001,60,8.59E-06
1210,237.80275,1.02E-02,0.29999,60,8.59E-06
1211,237.99919,1.02E-02,0.3,60,8.59E-06
1212,238.19079,1.02E-02,0.29998,60,8.59E-06
1213,238.37658,1.02E-02,0.30001,60,8.59E-06
1214,238.55862,1.02E-02,0.30001,60,8.59E-06
1215,238.73967,1.02E-02,0.30001,60,8.59E-06
1216,238.92451,1.02E-02,0.29996,60,8.59E-06
1217,239.11964,1.02E-02,0.3,60,8.59E-06
1218,239.32661,1.03E-02,0.30001,60,8.59E-06
1219,239.54278,1.03E-02,0.3,60,8.59E-06
1220,239.76432,1.03E-02,0.29999,60,8.59E-06
1221,239.98542,1.03E-02,0.30002,60,8.59E-06
1222,240.19929,1.03E-02,0.30002,60,8.59E-06
1223,240.40177,1.03E-02,0.3,60,8.59E-06
1224,240.59217,1.03E-02,0.3,60,8.59E-06
1225,240.77119,1.03E-02,0.29999,60,8.59E-06
1226,240.94207,1.03E-02,0.30001,60,8.59E-06
1227,241.10928,1.03E-02,0.29999,60,8.59E-06
1228,241.27646,1.03E-02,0.29999,60,8.59E-06
1229,241.44755,1.03E-02,0.29999,60,8.59E-06
1230,241.62498,1.04E-02,0.30005,60,8.59E-06
1231,241.81065,1.04E-02,0.3,60,8.59E-06
1232,242.00737,1.04E-02,0.29998,60,8.59E-06
1233,242.21946,1.04E-02,0.29998,60,8.59E-06
1234,242.45072,1.04E-02,0.29998,60,8.59E-06
1235,242.69855,1.04E-02,0.29999,60,8.58E-06
1236,242.95147,1.04E-02,0.30002,60,8.58E-06
1237,243.20017,1.04E-02,0.3,60,8.58E-06
1238,243.43889,1.04E-02,0.3,60,8.58E-06
1239,243.66187,1.04E-02,0.3,60,8.57E-06
1240,243.87113,1.04E-02,0.29997,60,8.57E-06
1241,244.07109,1.04E-02,0.30002,60,8.57E-06
1242,244.26396,1.04E-02,0.30003,60,8.57E-06
1243,244.45219,1.04E-02,0.29996,60,8.57E-06
1244,244.6382,1.05E-02,0.30002,60,8.57E-06
1245,244.82446,1.05E-02,0.3,60,8.57E-06
1246,245.0134,1.05E-02,0.30001,60,8.57E-06
1247,245.20689,1.05E-02,0.3,60,8.57E-06
1248,245.40543,1.05E-02,0.29995,60,8.57E-06
1249,245.60687,1.05E-02,0.3,60,8.56E-06
1250,245.80971,1.05E-02,0.3,60,8.56E-06
1251,246.01283,1.05E-02,0.29999,60,8.56E-06
1252,246.21218,1.05E-02,0.30005,60,8.56E-06
1253,246.40342,1.05E-02,0.30001,60,8.56E-06
1254,246.58352,1.05E-02,0.3,60,8.56E-06
1255,246.75199,1.05E-02,0.30001,60,8.56E-06
1256,246.91146,1.05E-02,0.30003,60,8.56E-06
1257,247.0661,1.06E-02,0.30002,60,8.56E-06
1258,247.2201,1.06E-02,0.30001,60,8.56E-06
1259,247.37682,1.06E-02,0.3,60,8.56E-06
1260,247.53947,1.06E-02,0.3,60,8.56E-06
1261,247.71045,1.06E-02,0.30001,60,8.56E-06
1262,247.89162,1.06E-02,0.3,60,8.56E-06
1263,248.08848,1.06E-02,0.3,60,8.56E-06
1264,248.313,1.06E-02,0.3,60,8.56E-06
1265,248.57748,1.06E-02,0.3,60,8.56E-06
1266,248.86971,1.06E-02,0.29998,60,8.55E-06
1267,249.14987,1.06E-02,0.3,60,8.54E-06
1268,249.39614,1.06E-02,0.30004,60,8.54E-06
1269,249.61079,1.06E-02,0.30002,60,8.54E-06
1270,249.80102,1.06E-02,0.30001,60,8.53E-06
1271,249.97333,1.06E-02,0.30001,60,8.53E-06
1272,250.13345,1.06E-02,0.3,60,8.53E-06
1273,250.28669,1.07E-02,0.3,60,8.53E-06
1274,250.43759,1.07E-02,0.3,60,8.53E-06
1275,250.58935,1.07E-02,0.30002,60,8.53E-06
1276,250.74477,1.07E-02,0.3,60,8.53E-06
1277,250.90658,1.07E-02,0.30001,60,8.53E-06
1278,251.07773,1.07E-02,0.29999,60,8.53E-06
1279,251.26097,1.07E-02,0.29997,60,8.53E-06
1280,251.45932,1.07E-02,0.29999,60,8.53E-06
1281,251.6782,1.07E-02,0.3,60,8.53E-06
1282,251.9268,1.07E-02,0.3,60,8.53E-06
1283,252.20499,1.07E-02,0.29999,60,8.52E-06
1284,252.5014,1.07E-02,0.29999,60,8.52E-06
1285,252.7857,1.07E-02,0.30002,60,8.51E-06
1286,253.03932,1.07E-02,0.29998,60,8.51E-06
1287,253.26515,1.07E-02,0.29999,60,8.50E-06
1288,253.46548,1.07E-02,0.29996,60,8.50E-06
1289,253.64326,1.07E-02,0.29998,60,8.50E-06
1290,253.80467,1.08E-02,0.29999,60,8.49E-06
1291,253.95552,1.08E-02,0.30001,60,8.49E-06
1292,254.10151,1.08E-02,0.3,60,8.49E-06
1293,254.24679,1.08E-02,0.29999,60,8.49E-06
1294,254.3947,1.08E-02,0.29999,60,8.49E-06
1295,254.54814,1.08E-02,0.29997,60,8.49E-06
1296,254.71038,1.08E-02,0.3,60,8.49E-06
1297,254.88469,1.08E-02,0.29997,60,8.49E-06
1298,255.07497,1.08E-02,0.30001,60,8.49E-06
1299,255.28695,1.08E-02,0.29999,60,8.48E-06
1300,255.53044,1.08E-02,0.3,60,8.48E-06
1301,255.81106,1.08E-02,0.29997,60,8.47E-06
1302,256.11867,1.08E-02,0.3,60,8.46E-06
1303,256.42342,1.08E-02,0.30004,60,8.46E-06
1304,256.70031,1.08E-02,0.3,60,8.45E-06
1305,256.94164,1.08E-02,0.3,60,8.44E-06
1306,257.14639,1.08E-02,0.29998,60,8.44E-06
1307,257.32352,1.08E-02,0.29999,60,8.43E-06
1308,257.48248,1.08E-02,0.30002,60,8.43E-06
1309,257.63019,1.08E-02,0.30001,60,8.43E-06
1310,257.77179,1.08E-02,0.29999,60,8.43E-06
1311,257.91125,1.08E-02,0.29999,60,8.43E-06
1312,258.05162,1.09E-02,0.30001,60,8.43E-06
1313,258.19552,1.09E-02,0.29999,60,8.43E-06
1314,258.34556,1.09E-02,0.3,60,8.42E-06
1315,258.50369,1.09E-02,0.3,60,8.42E-06
1316,258.67173,1.09E-02,0.3,60,8.42E-06
1317,258.85279,1.09E-02,0.29996,60,8.41E-06
1318,259.05257,1.09E-02,0.30001,60,8.41E-06
1319,259.27854,1.09E-02,0.30003,60,8.40E-06
1320,259.53579,1.09E-02,0.30002,60,8.40E-06
1321,259.8156,1.09E-02,0.29998,60,8.39E-06
1322,260.0928,1.09E-02,0.3,60,8.38E-06
1323,260.35233,1.09E-02,0.30002,60,8.38E-06
1324,260.59167,1.09E-02,0.29998,60,8.38E-06
1325,260.80732,1.09E-02,0.3,60,8.37E-06
1326,260.996,1.09E-02,0.30002,60,8.37E-06
1327,261.16242,1.09E-02,0.29999,60,8.37E-06
1328,261.31447,1.09E-02,0.30004,60,8.37E-06
1329,261.45937,1.09E-02,0.29998,60,8.37E-06
1330,261.602,1.09E-02,0.29998,60,8.37E-06
1331,261.7463,1.09E-02,0.30001,60,8.37E-06
1332,261.89508,1.09E-02,0.3,60,8.37E-06
1333,262.05106,1.10E-02,0.30001,60,8.37E-06
1334,262.21599,1.10E-02,0.29999,60,8.37E-06
1335,262.39148,1.10E-02,0.29999,60,8.37E-06
1336,262.57822,1.10E-02,0.30001,60,8.37E-06
1337,262.77713,1.10E-02,0.30001,60,8.37E-06
1338,262.99157,1.10E-02,0.30001,60,8.37E-06
1339,263.22433,1.10E-02,0.30001,60,8.36E-06
1340,263.47453,1.10E-02,0.30001,60,8.36E-06
1341,263.74011,1.10E-02,0.30003,60,8.36E-06
1342,264.01594,1.10E-02,0.30002,60,8.35E-06
1343,264.29085,1.10E-02,0.3,60,8.35E-06
1344,264.5466,1.10E-02,0.29999,60,8.35E-06
1345,264.77678,1.10E-02,0.29999,60,8.34E-06
1346,264.98189,1.10E-02,0.29999,60,8.34E-06
1347,265.16258,1.10E-02,0.29998,60,8.34E-06
1348,265.32452,1.10E-02,0.30011,60,8.34E-06
1349,265.47552,1.10E-02,0.29999,60,8.34E-06
1350,265.62182,1.11E-02,0.30001,60,8.34E-06
1351,265.7681,1.11E-02,0.29999,60,8.34E-06
1352,265.91748,1.11E-02,0.3,60,8.34E-06
1353,266.0723,1.11E-02,0.3,60,8.34E-06
1354,266.23538,1.11E-02,0.30001,60,8.34E-06
1355,266.40981,1.11E-02,0.3,60,8.34E-06
1356,266.5974,1.11E-02,0.29999,60,8.34E-06
1357,266.80009,1.11E-02,0.30002,60,8.34E-06
1358,267.01758,1.11E-02,0.30001,60,8.34E-06
1359,267.24779,1.11E-02,0.30004,60,8.34E-06
1360,267.49035,1.11E-02,0.29999,60,8.33E-06
1361,267.74172,1.11E-02,0.30001,60,8.33E-06
1362,267.99819,1.11E-02,0.3,60,8.33E-06
1363,268.25453,1.11E-02,0.3,60,8.32E-06
1364,268.50251,1.12E-02,0.29999,60,8.32E-06
1365,268.7356,1.12E-02,0.29999,60,8.32E-06
1366,268.95241,1.12E-02,0.30002,60,8.32E-06
1367,269.15172,1.12E-02,0.29997,60,8.31E-06
1368,269.33467,1.12E-02,0.30001,60,8.31E-06
1369,269.50483,1.12E-02,0.30002,60,8.31E-06
1370,269.66634,1.12E-02,0.3,60,8.31E-06
1371,269.82377,1.12E-02,0.3,60,8.31E-06
1372,269.9805,1.12E-02,0.30001,60,8.31E-06
1373,270.13948,1.12E-02,0.3,60,8.31E-06
1374,270.30321,1.12E-02,0.3,60,8.31E-06
1375,270.47447,1.12E-02,0.30001,60,8.32E-06
1376,270.65401,1.12E-02,0.3,60,8.31E-06
1377,270.84311,1.12E-02,0.30001,60,8.31E-06
1378,271.04283,1.13E-02,0.30003,60,8.31E-06
1379,271.25396,1.13E-02,0.30001,60,8.31E-06
1380,271.4733,1.13E-02,0.3,60,8.31E-06
1381,271.69399,1.13E-02,0.29998,60,8.31E-06
1382,271.91691,1.13E-02,0.30001,60,8.31E-06
1383,272.14117,1.13E-02,0.29998,60,8.31E-06
1384,272.35986,1.13E-02,0.30002,60,8.30E-06
1385,272.5696,1.13E-02,0.3,60,8.30E-06
1386,272.77137,1.13E-02,0.29998,60,8.30E-06
1387,272.96638,1.13E-02,0.3,60,8.30E-06
1388,273.15521,1.13E-02,0.30001,60,8.30E-06
1389,273.33935,1.13E-02,0.30002,60,8.30E-06
1390,273.52079,1.13E-02,0.3,60,8.30E-06
1391,273.70148,1.13E-02,0.29998,60,8.30E-06
1392,273.88289,1.14E-02,0.29998,60,8.30E-06
1393,274.06803,1.14E-02,0.3,60,8.30E-06
1394,274.25899,1.14E-02,0.30002,60,8.30E-06
1395,274.45547,1.14E-02,0.29999,60,8.30E-06
1396,274.65646,1.14E-02,0.29998,60,8.30E-06
1397,274.86203,1.14E-02,0.29996,60,8.30E-06
1398,275.07126,1.14E-02,0.29999,60,8.29E-06
1399,275.28279,1.14E-02,0.30002,60,8.29E-06
1400,275.49489,1.14E-02,0.29999,60,8.29E-06
