#EXPORTTYPE:       ,DATA ALL                          
#FILE:             ,李院长 MgO-C C15-骨 C15-基 1400.ngb-dl9
#FORMAT:           ,NETZSCH5                          
#FTYPE:            ,ANSI                              
#IDENTITY:         ,C15-基                             
#DECIMAL:          ,POINT                             
#SEPARATOR:        ,COMMA                             
#MTYPE:            ,DIL                               
#INSTRUMENT:       ,NETZSCH DIL 402SU                 
#PROJECT:          ,123                               
#DATE/TIME:        ,2025/6/5 17:20:27 (UTC+8)         
#CORR. FILE:       ,石墨炉 1400度-1.ngb-cl9               
#TEMPCAL:          ,TCALZERO.TMX                      
#LABORATORY:       ,wust                              
#OPERATOR:         ,                                  
#REMARK:           ,                                  
#SAMPLE:           ,镁碳                                
#SAMPLE LENGTH /mm:,25.68                             
#MATERIAL:         ,镁碳                                
#MEASMODE:         ,Standard Expansion                
#M.RANGE /μm:      ,50000                             
#CORR. CODE:       ,080                               
#RANGE:            ,25°C/5.0(K/min)/1403°C            
#SEGMENT:          ,S1/2                              
#SEG. 1:           ,25°C/5.0(K/min)/1403°C            
#Tref:             ,30.0°C                            

##Temp./°C,Time/min,dL/Lo,Force/N,Gas Flow(protective)/(ml/min),m. CTE(1)/(1/K)
  50.00000,  4.67629,2.635410e-004,0.30000,60.00000,1.086820e-005
  51.00000,  4.84124,2.693649e-004,0.29995,60.00000,1.062308e-005
  52.00000,  5.00197,2.737347e-004,0.30002,60.00000,1.033530e-005
  53.00000,  5.16198,2.777743e-004,0.30001,60.00000,1.005947e-005
  54.00000,  5.32484,2.816676e-004,0.30002,60.00000,9.801406e-006
  55.00000,  5.49393,2.853796e-004,0.29997,60.00000,9.555136e-006
  56.00000,  5.67306,2.897740e-004,0.29997,60.00000,9.356532e-006
  57.00000,  5.86570,2.949714e-004,0.30001,60.00000,9.205145e-006
  58.00000,  6.07617,3.018394e-004,0.30002,60.00000,9.121203e-006
  59.00000,  6.30755,3.101118e-004,0.30002,60.00000,9.095642e-006
  60.00000,  6.55673,3.204930e-004,0.30000,60.00000,9.139734e-006
  61.00000,  6.80861,3.319580e-004,0.29999,60.00000,9.214733e-006
  62.00000,  7.04832,3.428707e-004,0.30002,60.00000,9.269418e-006
  63.00000,  7.27003,3.529305e-004,0.29999,60.00000,9.296026e-006
  64.00000,  7.47456,3.615675e-004,0.30002,60.00000,9.275796e-006
  65.00000,  7.66487,3.687419e-004,0.30003,60.00000,9.214606e-006
  66.00000,  7.84358,3.751657e-004,0.30001,60.00000,9.137666e-006
  67.00000,  8.01381,3.807553e-004,0.30000,60.00000,9.040689e-006
  68.00000,  8.17885,3.851117e-004,0.30000,60.00000,8.917234e-006
  69.00000,  8.34235,3.891230e-004,0.30000,60.00000,8.788252e-006
  70.00000,  8.50803,3.931150e-004,0.30001,60.00000,8.667614e-006
  71.00000,  8.67981,3.971561e-004,0.29999,60.00000,8.554213e-006
  72.00000,  8.86171,4.014551e-004,0.29998,60.00000,8.451061e-006
  73.00000,  9.05776,4.070392e-004,0.30001,60.00000,8.387062e-006
  74.00000,  9.27255,4.144312e-004,0.30001,60.00000,8.363264e-006
  75.00000,  9.50758,4.236357e-004,0.29999,60.00000,8.383800e-006
  76.00000,  9.75466,4.347981e-004,0.30000,60.00000,8.444563e-006
  77.00000,  9.99973,4.467287e-004,0.30003,60.00000,8.519649e-006
  78.00000, 10.23250,4.578311e-004,0.30002,60.00000,8.575088e-006
  79.00000, 10.44943,4.680176e-004,0.30000,60.00000,8.607909e-006
  80.00000, 10.65146,4.766942e-004,0.29998,60.00000,8.609203e-006
  81.00000, 10.84116,4.841711e-004,0.30003,60.00000,8.586211e-006
  82.00000, 11.02082,4.908998e-004,0.29998,60.00000,8.550865e-006
  83.00000, 11.19369,4.962742e-004,0.30000,60.00000,8.490728e-006
  84.00000, 11.36279,5.015950e-004,0.30000,60.00000,8.430704e-006
  85.00000, 11.53138,5.061199e-004,0.30001,60.00000,8.359142e-006
  86.00000, 11.70332,5.110192e-004,0.30002,60.00000,8.296780e-006
  87.00000, 11.88285,5.162220e-004,0.29999,60.00000,8.242047e-006
  88.00000, 12.07337,5.223192e-004,0.29998,60.00000,8.205682e-006
  89.00000, 12.27876,5.297635e-004,0.29998,60.00000,8.191990e-006
  90.00000, 12.50203,5.383868e-004,0.30002,60.00000,8.199890e-006
  91.00000, 12.73997,5.483622e-004,0.30001,60.00000,8.230143e-006
  92.00000, 12.98162,5.589737e-004,0.30000,60.00000,8.269326e-006
  93.00000, 13.21666,5.699539e-004,0.30003,60.00000,8.311953e-006
  94.00000, 13.43971,5.796060e-004,0.30004,60.00000,8.333508e-006
  95.00000, 13.64921,5.886381e-004,0.30001,60.00000,8.344491e-006
  96.00000, 13.84744,5.967750e-004,0.30002,60.00000,8.341650e-006
  97.00000, 14.03636,6.035216e-004,0.30002,60.00000,8.317067e-006
  98.00000, 14.21727,6.098294e-004,0.30002,60.00000,8.287979e-006
  99.00000, 14.39281,6.153653e-004,0.30000,60.00000,8.247723e-006
 100.00000, 14.56579,6.210216e-004,0.30002,60.00000,8.209873e-006
 101.00000, 14.73960,6.263865e-004,0.29999,60.00000,8.169358e-006
 102.00000, 14.91782,6.322363e-004,0.30001,60.00000,8.137110e-006
 103.00000, 15.10421,6.388935e-004,0.30001,60.00000,8.115978e-006
 104.00000, 15.30147,6.464864e-004,0.30001,60.00000,8.109070e-006
 105.00000, 15.51311,6.553702e-004,0.29998,60.00000,8.119343e-006
 106.00000, 15.73972,6.654167e-004,0.29999,60.00000,8.145279e-006
 107.00000, 15.97439,6.762066e-004,0.30000,60.00000,8.180515e-006
 108.00000, 16.20790,6.869178e-004,0.29999,60.00000,8.212644e-006
 109.00000, 16.43572,6.968846e-004,0.30002,60.00000,8.235872e-006
 110.00000, 16.65413,7.064537e-004,0.29999,60.00000,8.252069e-006
 111.00000, 16.86211,7.148801e-004,0.30000,60.00000,8.254173e-006
 112.00000, 17.06100,7.227317e-004,0.30001,60.00000,8.249946e-006
 113.00000, 17.25210,7.296758e-004,0.29999,60.00000,8.233569e-006
 114.00000, 17.43731,7.362194e-004,0.30001,60.00000,8.213704e-006
 115.00000, 17.61848,7.420707e-004,0.29997,60.00000,8.185829e-006
 116.00000, 17.79684,7.477868e-004,0.30001,60.00000,8.156628e-006
 117.00000, 17.97505,7.540749e-004,0.30001,60.00000,8.134935e-006
 118.00000, 18.15608,7.601860e-004,0.29998,60.00000,8.111242e-006
 119.00000, 18.34239,7.670468e-004,0.29999,60.00000,8.097647e-006
 120.00000, 18.53695,7.742600e-004,0.30001,60.00000,8.087033e-006
 121.00000, 18.74081,7.821087e-004,0.30001,60.00000,8.085209e-006
 122.00000, 18.95404,7.909697e-004,0.29999,60.00000,8.093744e-006
 123.00000, 19.17423,7.999308e-004,0.30001,60.00000,8.103355e-006
 124.00000, 19.39697,8.094855e-004,0.30002,60.00000,8.118707e-006
 125.00000, 19.61870,8.187557e-004,0.29999,60.00000,8.130985e-006
 126.00000, 19.83604,8.277925e-004,0.29999,60.00000,8.140396e-006
 127.00000, 20.04769,8.362303e-004,0.30002,60.00000,8.143713e-006
 128.00000, 20.25404,8.447918e-004,0.30000,60.00000,8.148275e-006
 129.00000, 20.45514,8.525243e-004,0.29998,60.00000,8.143672e-006
 130.00000, 20.65146,8.598619e-004,0.30000,60.00000,8.136035e-006
 131.00000, 20.84419,8.668697e-004,0.29999,60.00000,8.124536e-006
 132.00000, 21.03433,8.736100e-004,0.29998,60.00000,8.110605e-006
 133.00000, 21.22272,8.803370e-004,0.29998,60.00000,8.097254e-006
 134.00000, 21.41028,8.867924e-004,0.29999,60.00000,8.081623e-006
 135.00000, 21.59859,8.934244e-004,0.29999,60.00000,8.067896e-006
 136.00000, 21.78865,9.004251e-004,0.29998,60.00000,8.057211e-006
 137.00000, 21.98101,9.073472e-004,0.29999,60.00000,8.046556e-006
 138.00000, 22.17657,9.146612e-004,0.29999,60.00000,8.040157e-006
 139.00000, 22.37655,9.221198e-004,0.30002,60.00000,8.034619e-006
 140.00000, 22.58108,9.302694e-004,0.29998,60.00000,8.035620e-006
 141.00000, 22.78956,9.379886e-004,0.29999,60.00000,8.032977e-006
 142.00000, 23.00169,9.465099e-004,0.29997,60.00000,8.037710e-006
 143.00000, 23.21700,9.551341e-004,0.30001,60.00000,8.042380e-006
 144.00000, 23.43484,9.643215e-004,0.30003,60.00000,8.052521e-006
 145.00000, 23.65370,9.730861e-004,0.29998,60.00000,8.058905e-006
 146.00000, 23.87235,9.818007e-004,0.29999,60.00000,8.064427e-006
 147.00000, 24.09081,9.905522e-004,0.29999,60.00000,8.070130e-006
 148.00000, 24.30753,9.987089e-004,0.30000,60.00000,8.071284e-006
 149.00000, 24.52114,1.006688e-003,0.30000,60.00000,8.070700e-006
 150.00000, 24.73127,1.014790e-003,0.29999,60.00000,8.070823e-006
 151.00000, 24.93806,1.022490e-003,0.29998,60.00000,8.067677e-006
 152.00000, 25.14223,1.029852e-003,0.30005,60.00000,8.062422e-006
 153.00000, 25.34330,1.037508e-003,0.30000,60.00000,8.059053e-006
 154.00000, 25.54219,1.044975e-003,0.30004,60.00000,8.053616e-006
 155.00000, 25.73964,1.052544e-003,0.29999,60.00000,8.050086e-006
 156.00000, 25.93594,1.059674e-003,0.29998,60.00000,8.042658e-006
 157.00000, 26.13184,1.067047e-003,0.30001,60.00000,8.037118e-006
 158.00000, 26.32778,1.074332e-003,0.30003,60.00000,8.031378e-006
 159.00000, 26.52437,1.081571e-003,0.29999,60.00000,8.025269e-006
 160.00000, 26.72207,1.089164e-003,0.30003,60.00000,8.021589e-006
 161.00000, 26.92114,1.096619e-003,0.29999,60.00000,8.017738e-006
 162.00000, 27.12273,1.103926e-003,0.30000,60.00000,8.012192e-006
 163.00000, 27.32654,1.112097e-003,0.30001,60.00000,8.013330e-006
 164.00000, 27.53199,1.119881e-003,0.29999,60.00000,8.011574e-006
 165.00000, 27.73911,1.127827e-003,0.30003,60.00000,8.011229e-006
 166.00000, 27.94801,1.135928e-003,0.30000,60.00000,8.011873e-006
 167.00000, 28.15795,1.143664e-003,0.30003,60.00000,8.009688e-006
 168.00000, 28.36844,1.151717e-003,0.30001,60.00000,8.010002e-006
 169.00000, 28.57914,1.159420e-003,0.29998,60.00000,8.007886e-006
 170.00000, 28.78940,1.166905e-003,0.30000,60.00000,8.004108e-006
 171.00000, 28.99869,1.174831e-003,0.30001,60.00000,8.003652e-006
 172.00000, 29.20694,1.182136e-003,0.30002,60.00000,7.999096e-006
 173.00000, 29.41401,1.190087e-003,0.30002,60.00000,7.998354e-006
 174.00000, 29.61896,1.197530e-003,0.29999,60.00000,7.994503e-006
 175.00000, 29.82258,1.205011e-003,0.30000,60.00000,7.991069e-006
 176.00000, 30.02516,1.212213e-003,0.29999,60.00000,7.985744e-006
 177.00000, 30.22632,1.219638e-003,0.29998,60.00000,7.981561e-006
 178.00000, 30.42635,1.226880e-003,0.30003,60.00000,7.976835e-006
 179.00000, 30.62582,1.234427e-003,0.30001,60.00000,7.973774e-006
 180.00000, 30.82488,1.241689e-003,0.30002,60.00000,7.969248e-006
 181.00000, 31.02404,1.249505e-003,0.30000,60.00000,7.967930e-006
 182.00000, 31.22355,1.257105e-003,0.30007,60.00000,7.965811e-006
 183.00000, 31.42369,1.265374e-003,0.30002,60.00000,7.967909e-006
 184.00000, 31.62438,1.273863e-003,0.29996,60.00000,7.971155e-006
 185.00000, 31.82513,1.281951e-003,0.29999,60.00000,7.971787e-006
 186.00000, 32.02602,1.290211e-003,0.29999,60.00000,7.973774e-006
 187.00000, 32.22751,1.298513e-003,0.29999,60.00000,7.975798e-006
 188.00000, 32.42996,1.307153e-003,0.29999,60.00000,7.979890e-006
 189.00000, 32.63317,1.315113e-003,0.30000,60.00000,7.979910e-006
 190.00000, 32.83728,1.323620e-003,0.29999,60.00000,7.983162e-006
 191.00000, 33.04219,1.331738e-003,0.29998,60.00000,7.984151e-006
 192.00000, 33.24681,1.339918e-003,0.30000,60.00000,7.985215e-006
 193.00000, 33.45116,1.347699e-003,0.30004,60.00000,7.983906e-006
 194.00000, 33.65542,1.355963e-003,0.30001,60.00000,7.985797e-006
 195.00000, 33.85927,1.363912e-003,0.29999,60.00000,7.985449e-006
 196.00000, 34.06273,1.371975e-003,0.30000,60.00000,7.985964e-006
 197.00000, 34.26569,1.379796e-003,0.29997,60.00000,7.984958e-006
 198.00000, 34.46832,1.387519e-003,0.30001,60.00000,7.983415e-006
 199.00000, 34.67077,1.395744e-003,0.29999,60.00000,7.984818e-006
 200.00000, 34.87252,1.403752e-003,0.30001,60.00000,7.985190e-006
 201.00000, 35.07433,1.411435e-003,0.30001,60.00000,7.983366e-006
 202.00000, 35.27544,1.419369e-003,0.29998,60.00000,7.983030e-006
 203.00000, 35.47573,1.426948e-003,0.30001,60.00000,7.980598e-006
 204.00000, 35.67622,1.434704e-003,0.30000,60.00000,7.979377e-006
 205.00000, 35.87644,1.442352e-003,0.30000,60.00000,7.977342e-006
 206.00000, 36.07647,1.450159e-003,0.29999,60.00000,7.976240e-006
 207.00000, 36.27668,1.457954e-003,0.30001,60.00000,7.975463e-006
 208.00000, 36.47689,1.465701e-003,0.30001,60.00000,7.974010e-006
 209.00000, 36.67702,1.473754e-003,0.30004,60.00000,7.974281e-006
 210.00000, 36.87689,1.481866e-003,0.30003,60.00000,7.975386e-006
 211.00000, 37.07646,1.490111e-003,0.30000,60.00000,7.976714e-006
 212.00000, 37.27579,1.498173e-003,0.29999,60.00000,7.977305e-006
 213.00000, 37.47496,1.506433e-003,0.29998,60.00000,7.978654e-006
 214.00000, 37.67410,1.514792e-003,0.29998,60.00000,7.980864e-006
 215.00000, 37.87301,1.522871e-003,0.30001,60.00000,7.981515e-006
 216.00000, 38.07124,1.531344e-003,0.29999,60.00000,7.984089e-006
 217.00000, 38.26936,1.539703e-003,0.30000,60.00000,7.985939e-006
 218.00000, 38.46737,1.547906e-003,0.30001,60.00000,7.987253e-006
 219.00000, 38.66466,1.556148e-003,0.30003,60.00000,7.988573e-006
 220.00000, 38.86168,1.564500e-003,0.30002,60.00000,7.990430e-006
 221.00000, 39.05861,1.572874e-003,0.29999,60.00000,7.992483e-006
 222.00000, 39.25547,1.581045e-003,0.29998,60.00000,7.993425e-006
 223.00000, 39.45228,1.588925e-003,0.30003,60.00000,7.992887e-006
 224.00000, 39.64928,1.597308e-003,0.30000,60.00000,7.994736e-006
 225.00000, 39.84657,1.605127e-003,0.30000,60.00000,7.993897e-006
 226.00000, 40.04442,1.613146e-003,0.30000,60.00000,7.993990e-006
 227.00000, 40.24251,1.620679e-003,0.30000,60.00000,7.991769e-006
 228.00000, 40.44090,1.628914e-003,0.29998,60.00000,7.992792e-006
 229.00000, 40.63944,1.636692e-003,0.30002,60.00000,7.991919e-006
 230.00000, 40.83796,1.644454e-003,0.30001,60.00000,7.990610e-006
 231.00000, 41.03677,1.652411e-003,0.29999,60.00000,7.990376e-006
 232.00000, 41.23555,1.660084e-003,0.30000,60.00000,7.989030e-006
 233.00000, 41.43438,1.667824e-003,0.30002,60.00000,7.987499e-006
 234.00000, 41.63318,1.675681e-003,0.30001,60.00000,7.987253e-006
 235.00000, 41.83193,1.683319e-003,0.29999,60.00000,7.985458e-006
 236.00000, 42.03036,1.691137e-003,0.30000,60.00000,7.984502e-006
 237.00000, 42.22850,1.699147e-003,0.29996,60.00000,7.984444e-006
 238.00000, 42.42640,1.707087e-003,0.30003,60.00000,7.984310e-006
 239.00000, 42.62399,1.715337e-003,0.29998,60.00000,7.985892e-006
 240.00000, 42.82164,1.723431e-003,0.29998,60.00000,7.986347e-006
 241.00000, 43.01903,1.731659e-003,0.30001,60.00000,7.987459e-006
 242.00000, 43.21585,1.739662e-003,0.29998,60.00000,7.987413e-006
 243.00000, 43.41244,1.747888e-003,0.29999,60.00000,7.988658e-006
 244.00000, 43.60917,1.755961e-003,0.29998,60.00000,7.988996e-006
 245.00000, 43.80598,1.764270e-003,0.29998,60.00000,7.990545e-006
 246.00000, 44.00267,1.772846e-003,0.30002,60.00000,7.993029e-006
 247.00000, 44.19966,1.781034e-003,0.29999,60.00000,7.994090e-006
 248.00000, 44.39716,1.789729e-003,0.30000,60.00000,7.997390e-006
 249.00000, 44.59460,1.798280e-003,0.30002,60.00000,7.999748e-006
 250.00000, 44.79244,1.806733e-003,0.30002,60.00000,8.001925e-006
 251.00000, 44.99076,1.815374e-003,0.30005,60.00000,8.004762e-006
 252.00000, 45.18945,1.823720e-003,0.30003,60.00000,8.006256e-006
 253.00000, 45.38889,1.832105e-003,0.29999,60.00000,8.008037e-006
 254.00000, 45.58909,1.840547e-003,0.29996,60.00000,8.010051e-006
 255.00000, 45.78957,1.848753e-003,0.30000,60.00000,8.010939e-006
 256.00000, 45.98995,1.857003e-003,0.30001,60.00000,8.011852e-006
 257.00000, 46.19035,1.865150e-003,0.29999,60.00000,8.012494e-006
 258.00000, 46.39084,1.873297e-003,0.29998,60.00000,8.013072e-006
 259.00000, 46.59112,1.881386e-003,0.29999,60.00000,8.013387e-006
 260.00000, 46.79151,1.889449e-003,0.29998,60.00000,8.013574e-006
 261.00000, 46.99222,1.897110e-003,0.30000,60.00000,8.011960e-006
 262.00000, 47.19323,1.905054e-003,0.30004,60.00000,8.011740e-006
 263.00000, 47.39500,1.913190e-003,0.29998,60.00000,8.012189e-006
 264.00000, 47.59718,1.921105e-003,0.30001,60.00000,8.011951e-006
 265.00000, 47.79975,1.929128e-003,0.30000,60.00000,8.012055e-006
 266.00000, 48.00308,1.937397e-003,0.30000,60.00000,8.013124e-006
 267.00000, 48.20670,1.945904e-003,0.30000,60.00000,8.015035e-006
 268.00000, 48.41027,1.953964e-003,0.29997,60.00000,8.015324e-006
 269.00000, 48.61410,1.962428e-003,0.29999,60.00000,8.017163e-006
 270.00000, 48.81806,1.970489e-003,0.30001,60.00000,8.017394e-006
 271.00000, 49.02201,1.979049e-003,0.30000,60.00000,8.019553e-006
 272.00000, 49.22586,1.987463e-003,0.30001,60.00000,8.021176e-006
 273.00000, 49.42929,1.995569e-003,0.29998,60.00000,8.021695e-006
 274.00000, 49.63219,2.003493e-003,0.30002,60.00000,8.021229e-006
 275.00000, 49.83477,2.011723e-003,0.29999,60.00000,8.022039e-006
 276.00000, 50.03657,2.019802e-003,0.30002,60.00000,8.022276e-006
 277.00000, 50.23802,2.027776e-003,0.30004,60.00000,8.022017e-006
 278.00000, 50.43994,2.035747e-003,0.30001,60.00000,8.021915e-006
 279.00000, 50.64148,2.043623e-003,0.29999,60.00000,8.021394e-006
 280.00000, 50.84262,2.051698e-003,0.30000,60.00000,8.021478e-006
 281.00000, 51.04422,2.059629e-003,0.29999,60.00000,8.021072e-006
 282.00000, 51.24548,2.067864e-003,0.30001,60.00000,8.022151e-006
 283.00000, 51.44636,2.076052e-003,0.29998,60.00000,8.022701e-006
 284.00000, 51.64745,2.084160e-003,0.30000,60.00000,8.023061e-006
 285.00000, 51.84866,2.092283e-003,0.30002,60.00000,8.023503e-006
 286.00000, 52.05015,2.100846e-003,0.30002,60.00000,8.025488e-006
 287.00000, 52.25182,2.109201e-003,0.30000,60.00000,8.026868e-006
 288.00000, 52.45426,2.117457e-003,0.30002,60.00000,8.027801e-006
 289.00000, 52.65718,2.126040e-003,0.29999,60.00000,8.029930e-006
 290.00000, 52.86068,2.134718e-003,0.29999,60.00000,8.032288e-006
 291.00000, 53.06524,2.143103e-003,0.29999,60.00000,8.033649e-006
 292.00000, 53.26958,2.151360e-003,0.30000,60.00000,8.034635e-006
 293.00000, 53.47410,2.159615e-003,0.29999,60.00000,8.035313e-006
 294.00000, 53.67941,2.167737e-003,0.29998,60.00000,8.035591e-006
 295.00000, 53.88519,2.175553e-003,0.29998,60.00000,8.035000e-006
 296.00000, 54.10037,2.184637e-003,0.30001,60.00000,8.037131e-006
 297.00000, 54.32002,2.191965e-003,0.30002,60.00000,8.036653e-006
 298.00000, 54.52588,2.199963e-003,0.30000,60.00000,8.036063e-006
 299.00000, 54.72632,2.207767e-003,0.30001,60.00000,8.035093e-006
 300.00000, 54.92554,2.215252e-003,0.29997,60.00000,8.033179e-006
 301.00000, 55.12323,2.222926e-003,0.30000,60.00000,8.031956e-006
 302.00000, 55.32020,2.231128e-003,0.30000,60.00000,8.032403e-006
 303.00000, 55.51673,2.238511e-003,0.29999,60.00000,8.030164e-006
 304.00000, 55.71304,2.246288e-003,0.30000,60.00000,8.028963e-006
 305.00000, 55.90944,2.253830e-003,0.30000,60.00000,8.027310e-006
 306.00000, 56.10641,2.261485e-003,0.30000,60.00000,8.025931e-006
 307.00000, 56.30388,2.269377e-003,0.30000,60.00000,8.025589e-006
 308.00000, 56.50262,2.277307e-003,0.30001,60.00000,8.025101e-006
 309.00000, 56.70260,2.285276e-003,0.30003,60.00000,8.024871e-006
 310.00000, 56.90340,2.292954e-003,0.30002,60.00000,8.023783e-006
 311.00000, 57.10522,2.300766e-003,0.30001,60.00000,8.022912e-006
 312.00000, 57.30757,2.308777e-003,0.30002,60.00000,8.023097e-006
 313.00000, 57.51045,2.316741e-003,0.30000,60.00000,8.022538e-006
 314.00000, 57.71342,2.324466e-003,0.30000,60.00000,8.021705e-006
 315.00000, 57.91686,2.332154e-003,0.29998,60.00000,8.020424e-006
 316.00000, 58.11968,2.339729e-003,0.29997,60.00000,8.018950e-006
 317.00000, 58.32102,2.347561e-003,0.29997,60.00000,8.018278e-006
 318.00000, 58.52182,2.355053e-003,0.30002,60.00000,8.016475e-006
 319.00000, 58.72207,2.362799e-003,0.30003,60.00000,8.015502e-006
 320.00000, 58.92226,2.370788e-003,0.29998,60.00000,8.015535e-006
 321.00000, 59.12298,2.378727e-003,0.30000,60.00000,8.015142e-006
 322.00000, 59.32320,2.386784e-003,0.30000,60.00000,8.015403e-006
 323.00000, 59.52311,2.394992e-003,0.29999,60.00000,8.015822e-006
 324.00000, 59.72352,2.402773e-003,0.30000,60.00000,8.015224e-006
 325.00000, 59.92463,2.410721e-003,0.30001,60.00000,8.014841e-006
 326.00000, 60.12620,2.418877e-003,0.30002,60.00000,8.015444e-006
 327.00000, 60.32860,2.427193e-003,0.30000,60.00000,8.016373e-006
 328.00000, 60.53126,2.435598e-003,0.30002,60.00000,8.017710e-006
 329.00000, 60.73393,2.443991e-003,0.29997,60.00000,8.018876e-006
 330.00000, 60.93677,2.452257e-003,0.30005,60.00000,8.019708e-006
 331.00000, 61.13961,2.460423e-003,0.30000,60.00000,8.020220e-006
 332.00000, 61.34282,2.468704e-003,0.29999,60.00000,8.021124e-006
 333.00000, 61.54621,2.476662e-003,0.29998,60.00000,8.020954e-006
 334.00000, 61.74954,2.484263e-003,0.30000,60.00000,8.019487e-006
 335.00000, 61.95271,2.492555e-003,0.30000,60.00000,8.020489e-006
 336.00000, 62.15600,2.500745e-003,0.29998,60.00000,8.020973e-006
 337.00000, 62.35958,2.508664e-003,0.30000,60.00000,8.020634e-006
 338.00000, 62.56355,2.516732e-003,0.29998,60.00000,8.020832e-006
 339.00000, 62.76764,2.524759e-003,0.29999,60.00000,8.020898e-006
 340.00000, 62.97160,2.532768e-003,0.30002,60.00000,8.020797e-006
 341.00000, 63.17581,2.540810e-003,0.29999,60.00000,8.020892e-006
 342.00000, 63.38009,2.548928e-003,0.30002,60.00000,8.021194e-006
 343.00000, 63.58487,2.556670e-003,0.30004,60.00000,8.020413e-006
 344.00000, 63.79005,2.564642e-003,0.30002,60.00000,8.020171e-006
 345.00000, 63.99541,2.572797e-003,0.30004,60.00000,8.020530e-006
 346.00000, 64.20080,2.580470e-003,0.30005,60.00000,8.019607e-006
 347.00000, 64.40585,2.588552e-003,0.29999,60.00000,8.019762e-006
 348.00000, 64.61050,2.596739e-003,0.30000,60.00000,8.020181e-006
 349.00000, 64.81484,2.604052e-003,0.29997,60.00000,8.017981e-006
 350.00000, 65.01890,2.611474e-003,0.29997,60.00000,8.016097e-006
 351.00000, 65.22255,2.619274e-003,0.29999,60.00000,8.015482e-006
 352.00000, 65.42609,2.626853e-003,0.30000,60.00000,8.014065e-006
 353.00000, 65.62952,2.634571e-003,0.29998,60.00000,8.013053e-006
 354.00000, 65.83269,2.642219e-003,0.30000,60.00000,8.012014e-006
 355.00000, 66.03631,2.650092e-003,0.30004,60.00000,8.011713e-006
 356.00000, 66.24064,2.658023e-003,0.30004,60.00000,8.011370e-006
 357.00000, 66.44541,2.666247e-003,0.30001,60.00000,8.012009e-006
 358.00000, 66.65126,2.674420e-003,0.29998,60.00000,8.012484e-006
 359.00000, 66.85802,2.682764e-003,0.30002,60.00000,8.013450e-006
 360.00000, 67.06540,2.691436e-003,0.29997,60.00000,8.015448e-006
 361.00000, 67.27337,2.699757e-003,0.30002,60.00000,8.016472e-006
 362.00000, 67.48135,2.708247e-003,0.29999,60.00000,8.017869e-006
 363.00000, 67.68845,2.716584e-003,0.30002,60.00000,8.018842e-006
 364.00000, 67.89446,2.724971e-003,0.30000,60.00000,8.019994e-006
 365.00000, 68.09975,2.733573e-003,0.30000,60.00000,8.021742e-006
 366.00000, 68.30410,2.741659e-003,0.30001,60.00000,8.021875e-006
 367.00000, 68.50766,2.749785e-003,0.30000,60.00000,8.022149e-006
 368.00000, 68.71107,2.758082e-003,0.29999,60.00000,8.022881e-006
 369.00000, 68.91505,2.766140e-003,0.30003,60.00000,8.023173e-006
 370.00000, 69.11953,2.774295e-003,0.30000,60.00000,8.023503e-006
 371.00000, 69.32450,2.782845e-003,0.29997,60.00000,8.024962e-006
 372.00000, 69.53062,2.791004e-003,0.30003,60.00000,8.025344e-006
 373.00000, 69.73723,2.799118e-003,0.29999,60.00000,8.025604e-006
 374.00000, 69.94366,2.807509e-003,0.30000,60.00000,8.026758e-006
 375.00000, 70.14966,2.815453e-003,0.29997,60.00000,8.026495e-006
 376.00000, 70.35514,2.823658e-003,0.30001,60.00000,8.027071e-006
 377.00000, 70.56007,2.831563e-003,0.30000,60.00000,8.026669e-006
 378.00000, 70.76426,2.839643e-003,0.30003,60.00000,8.026831e-006
 379.00000, 70.96738,2.847590e-003,0.30002,60.00000,8.026630e-006
 380.00000, 71.16926,2.855539e-003,0.30003,60.00000,8.026350e-006
 381.00000, 71.37049,2.863034e-003,0.30003,60.00000,8.024868e-006
 382.00000, 71.57153,2.871001e-003,0.30000,60.00000,8.024636e-006
 383.00000, 71.77231,2.879479e-003,0.30001,60.00000,8.025941e-006
 384.00000, 71.97315,2.887337e-003,0.30000,60.00000,8.025484e-006
 385.00000, 72.17445,2.894929e-003,0.30000,60.00000,8.024190e-006
 386.00000, 72.37589,2.902680e-003,0.30000,60.00000,8.023485e-006
 387.00000, 72.57775,2.910359e-003,0.29998,60.00000,8.022489e-006
 388.00000, 72.78014,2.918146e-003,0.29999,60.00000,8.021904e-006
 389.00000, 72.98317,2.925972e-003,0.30002,60.00000,8.021247e-006
 390.00000, 73.18674,2.933386e-003,0.30007,60.00000,8.019636e-006
 391.00000, 73.39042,2.941460e-003,0.30002,60.00000,8.019848e-006
 392.00000, 73.59410,2.949135e-003,0.29999,60.00000,8.018887e-006
 393.00000, 73.79715,2.956996e-003,0.30000,60.00000,8.018502e-006
 394.00000, 73.99975,2.964767e-003,0.29999,60.00000,8.017709e-006
 395.00000, 74.20182,2.972839e-003,0.29997,60.00000,8.017787e-006
 396.00000, 74.40374,2.980496e-003,0.30002,60.00000,8.016883e-006
 397.00000, 74.60612,2.988306e-003,0.30000,60.00000,8.016328e-006
 398.00000, 74.80857,2.996356e-003,0.30001,60.00000,8.016392e-006
 399.00000, 75.01111,3.004136e-003,0.29999,60.00000,8.015807e-006
 400.00000, 75.21377,3.012139e-003,0.30003,60.00000,8.015762e-006
 401.00000, 75.41628,3.019998e-003,0.29999,60.00000,8.015298e-006
 402.00000, 75.61835,3.027742e-003,0.30004,60.00000,8.014598e-006
 403.00000, 75.82059,3.035913e-003,0.29999,60.00000,8.014985e-006
 404.00000, 76.02320,3.043856e-003,0.29999,60.00000,8.014782e-006
 405.00000, 76.22625,3.051504e-003,0.30001,60.00000,8.013735e-006
 406.00000, 76.42969,3.059546e-003,0.30001,60.00000,8.013972e-006
 407.00000, 76.63317,3.067109e-003,0.30001,60.00000,8.012651e-006
 408.00000, 76.83693,3.074863e-003,0.30000,60.00000,8.012077e-006
 409.00000, 77.04109,3.082738e-003,0.30000,60.00000,8.011703e-006
 410.00000, 77.24561,3.090475e-003,0.29999,60.00000,8.010923e-006
 411.00000, 77.45044,3.098294e-003,0.30002,60.00000,8.010420e-006
 412.00000, 77.65566,3.106038e-003,0.29999,60.00000,8.009710e-006
 413.00000, 77.86102,3.113648e-003,0.29999,60.00000,8.008757e-006
 414.00000, 78.06590,3.121444e-003,0.30002,60.00000,8.008170e-006
 415.00000, 78.27068,3.129217e-003,0.29998,60.00000,8.007548e-006
 416.00000, 78.47551,3.136958e-003,0.29998,60.00000,8.006820e-006
 417.00000, 78.67987,3.144347e-003,0.30003,60.00000,8.005246e-006
 418.00000, 78.88343,3.151491e-003,0.29999,60.00000,8.003035e-006
 419.00000, 79.08608,3.158913e-003,0.30000,60.00000,8.001549e-006
 420.00000, 79.28828,3.166237e-003,0.30001,60.00000,7.999842e-006
 421.00000, 79.49005,3.173620e-003,0.30003,60.00000,7.998230e-006
 422.00000, 79.69124,3.180942e-003,0.30002,60.00000,7.996513e-006
 423.00000, 79.89265,3.188731e-003,0.29999,60.00000,7.995961e-006
 424.00000, 80.09476,3.196497e-003,0.29998,60.00000,7.995285e-006
 425.00000, 80.29753,3.203942e-003,0.29999,60.00000,7.994045e-006
 426.00000, 80.50106,3.211824e-003,0.30002,60.00000,7.993612e-006
 427.00000, 80.70555,3.219895e-003,0.30001,60.00000,7.994039e-006
 428.00000, 80.91092,3.228039e-003,0.29999,60.00000,7.994230e-006
 429.00000, 81.11726,3.235986e-003,0.30002,60.00000,7.994144e-006
 430.00000, 81.32386,3.244142e-003,0.30000,60.00000,7.994580e-006
 431.00000, 81.53024,3.252144e-003,0.29999,60.00000,7.994637e-006
 432.00000, 81.73671,3.260029e-003,0.29998,60.00000,7.994319e-006
 433.00000, 81.94286,3.268154e-003,0.30002,60.00000,7.994663e-006
 434.00000, 82.14865,3.276178e-003,0.29999,60.00000,7.994629e-006
 435.00000, 82.35407,3.283997e-003,0.30000,60.00000,7.994296e-006
 436.00000, 82.55902,3.292045e-003,0.30000,60.00000,7.994372e-006
 437.00000, 82.76372,3.300084e-003,0.29999,60.00000,7.994497e-006
 438.00000, 82.96884,3.307876e-003,0.29995,60.00000,7.993968e-006
 439.00000, 83.17439,3.316034e-003,0.30002,60.00000,7.994431e-006
 440.00000, 83.38016,3.324254e-003,0.29998,60.00000,7.994976e-006
 441.00000, 83.58648,3.332043e-003,0.30001,60.00000,7.994473e-006
 442.00000, 83.79288,3.340207e-003,0.29998,60.00000,7.994863e-006
 443.00000, 83.99876,3.348516e-003,0.29995,60.00000,7.995663e-006
 444.00000, 84.20433,3.356395e-003,0.30000,60.00000,7.995307e-006
 445.00000, 84.40971,3.364296e-003,0.29999,60.00000,7.995088e-006
 446.00000, 84.61503,3.372310e-003,0.29998,60.00000,7.995160e-006
 447.00000, 84.82066,3.380016e-003,0.30003,60.00000,7.994419e-006
 448.00000, 85.02677,3.387850e-003,0.30002,60.00000,7.994017e-006
 449.00000, 85.23357,3.395560e-003,0.29999,60.00000,7.993421e-006
 450.00000, 85.44073,3.403315e-003,0.29999,60.00000,7.992789e-006
 451.00000, 85.64725,3.410793e-003,0.29997,60.00000,7.991584e-006
 452.00000, 85.85323,3.418394e-003,0.30000,60.00000,7.990759e-006
 453.00000, 86.05873,3.426097e-003,0.30001,60.00000,7.990036e-006
 454.00000, 86.26341,3.433325e-003,0.29998,60.00000,7.988254e-006
 455.00000, 86.46714,3.440341e-003,0.30002,60.00000,7.986033e-006
 456.00000, 86.67009,3.448075e-003,0.30000,60.00000,7.985397e-006
 457.00000, 86.87218,3.455658e-003,0.30001,60.00000,7.984424e-006
 458.00000, 87.07316,3.462677e-003,0.30000,60.00000,7.982235e-006
 459.00000, 87.27388,3.470311e-003,0.30001,60.00000,7.981337e-006
 460.00000, 87.47450,3.477694e-003,0.30000,60.00000,7.979918e-006
 461.00000, 87.67540,3.485138e-003,0.30002,60.00000,7.978687e-006
 462.00000, 87.87712,3.492994e-003,0.29999,60.00000,7.978407e-006
 463.00000, 88.07960,3.500793e-003,0.30000,60.00000,7.977976e-006
 464.00000, 88.28289,3.508920e-003,0.30000,60.00000,7.978372e-006
 465.00000, 88.48664,3.517176e-003,0.30000,60.00000,7.978991e-006
 466.00000, 88.69072,3.525309e-003,0.30001,60.00000,7.979359e-006
 467.00000, 88.89489,3.533151e-003,0.30000,60.00000,7.979114e-006
 468.00000, 89.09866,3.541406e-003,0.30001,60.00000,7.979692e-006
 469.00000, 89.30189,3.549414e-003,0.30000,60.00000,7.979707e-006
 470.00000, 89.50480,3.557297e-003,0.29999,60.00000,7.979535e-006
 471.00000, 89.70744,3.565183e-003,0.30001,60.00000,7.979313e-006
 472.00000, 89.90978,3.573427e-003,0.29997,60.00000,7.979901e-006
 473.00000, 90.11191,3.581352e-003,0.30001,60.00000,7.979778e-006
 474.00000, 90.31376,3.589363e-003,0.29999,60.00000,7.979795e-006
 475.00000, 90.51576,3.597382e-003,0.29998,60.00000,7.979783e-006
 476.00000, 90.71783,3.605136e-003,0.30003,60.00000,7.979422e-006
 477.00000, 90.92007,3.612976e-003,0.29998,60.00000,7.979140e-006
 478.00000, 91.12277,3.620484e-003,0.29999,60.00000,7.978052e-006
 479.00000, 91.32574,3.628196e-003,0.29999,60.00000,7.977496e-006
 480.00000, 91.52893,3.635956e-003,0.30002,60.00000,7.977026e-006
 481.00000, 91.73226,3.643596e-003,0.30001,60.00000,7.976276e-006
 482.00000, 91.93573,3.651497e-003,0.29999,60.00000,7.976007e-006
 483.00000, 92.13935,3.658586e-003,0.30000,60.00000,7.974095e-006
 484.00000, 92.34252,3.666193e-003,0.30000,60.00000,7.973291e-006
 485.00000, 92.54552,3.673522e-003,0.30000,60.00000,7.971926e-006
 486.00000, 92.74861,3.681078e-003,0.30002,60.00000,7.970893e-006
 487.00000, 92.95097,3.688678e-003,0.30000,60.00000,7.970134e-006
 488.00000, 93.15289,3.695823e-003,0.30001,60.00000,7.968346e-006
 489.00000, 93.35460,3.703523e-003,0.29993,60.00000,7.967782e-006
 490.00000, 93.55645,3.711146e-003,0.29996,60.00000,7.967049e-006
 491.00000, 93.75857,3.718633e-003,0.30001,60.00000,7.965978e-006
 492.00000, 93.96087,3.726289e-003,0.30001,60.00000,7.965324e-006
 493.00000, 94.16403,3.734149e-003,0.30002,60.00000,7.965098e-006
 494.00000, 94.36833,3.742199e-003,0.30000,60.00000,7.965269e-006
 495.00000, 94.57341,3.749611e-003,0.30001,60.00000,7.964054e-006
 496.00000, 94.77896,3.757173e-003,0.30001,60.00000,7.963260e-006
 497.00000, 94.98501,3.764651e-003,0.30000,60.00000,7.962191e-006
 498.00000, 95.19119,3.771953e-003,0.30001,60.00000,7.960762e-006
 499.00000, 95.39755,3.779564e-003,0.29991,60.00000,7.959999e-006
 500.00000, 95.60381,3.786790e-003,0.30003,60.00000,7.958496e-006
 501.00000, 95.80923,3.794371e-003,0.29999,60.00000,7.957687e-006
 502.00000, 96.01356,3.802044e-003,0.29999,60.00000,7.957136e-006
 503.00000, 96.21686,3.809686e-003,0.30000,60.00000,7.956363e-006
 504.00000, 96.41978,3.817454e-003,0.29999,60.00000,7.956045e-006
 505.00000, 96.62265,3.825107e-003,0.29999,60.00000,7.955363e-006
 506.00000, 96.82546,3.833045e-003,0.30002,60.00000,7.955313e-006
 507.00000, 97.02876,3.840904e-003,0.29998,60.00000,7.955052e-006
 508.00000, 97.23253,3.849188e-003,0.29998,60.00000,7.955756e-006
 509.00000, 97.43685,3.857291e-003,0.30001,60.00000,7.956097e-006
 510.00000, 97.64196,3.865495e-003,0.30000,60.00000,7.956621e-006
 511.00000, 97.84765,3.873792e-003,0.29999,60.00000,7.957284e-006
 512.00000, 98.05407,3.882185e-003,0.29999,60.00000,7.958133e-006
 513.00000, 98.26083,3.890160e-003,0.29999,60.00000,7.958278e-006
 514.00000, 98.46782,3.898323e-003,0.29999,60.00000,7.958721e-006
 515.00000, 98.67475,3.906364e-003,0.29999,60.00000,7.958872e-006
 516.00000, 98.88084,3.914513e-003,0.29999,60.00000,7.959222e-006
 517.00000, 99.08672,3.922801e-003,0.29999,60.00000,7.959941e-006
 518.00000, 99.29238,3.930692e-003,0.29998,60.00000,7.959801e-006
 519.00000, 99.49745,3.939039e-003,0.30002,60.00000,7.960562e-006
 520.00000, 99.70222,3.946912e-003,0.30001,60.00000,7.960445e-006
 521.00000, 99.90679,3.954737e-003,0.29996,60.00000,7.960152e-006
 522.00000,100.11104,3.962595e-003,0.29996,60.00000,7.959959e-006
 523.00000,100.31534,3.970342e-003,0.30002,60.00000,7.959438e-006
 524.00000,100.52031,3.978043e-003,0.29998,60.00000,7.958942e-006
 525.00000,100.72602,3.985414e-003,0.30002,60.00000,7.957738e-006
 526.00000,100.93227,3.992886e-003,0.30001,60.00000,7.956843e-006
 527.00000,101.13829,4.000098e-003,0.30001,60.00000,7.955272e-006
 528.00000,101.34392,4.007488e-003,0.30000,60.00000,7.954201e-006
 529.00000,101.54921,4.014994e-003,0.30003,60.00000,7.953325e-006
 530.00000,101.75351,4.022114e-003,0.30000,60.00000,7.951674e-006
 531.00000,101.95711,4.029495e-003,0.29998,60.00000,7.950487e-006
 532.00000,102.15996,4.037166e-003,0.29998,60.00000,7.949970e-006
 533.00000,102.36165,4.044584e-003,0.29998,60.00000,7.948864e-006
 534.00000,102.56260,4.052051e-003,0.30002,60.00000,7.947899e-006
 535.00000,102.76310,4.059701e-003,0.30001,60.00000,7.947202e-006
 536.00000,102.96326,4.067287e-003,0.30000,60.00000,7.946586e-006
 537.00000,103.16333,4.074694e-003,0.29998,60.00000,7.945522e-006
 538.00000,103.36357,4.082924e-003,0.29999,60.00000,7.946036e-006
 539.00000,103.56453,4.090432e-003,0.29999,60.00000,7.945208e-006
 540.00000,103.76604,4.098281e-003,0.30005,60.00000,7.945020e-006
 541.00000,103.96769,4.106286e-003,0.29999,60.00000,7.945146e-006
 542.00000,104.16974,4.114090e-003,0.30000,60.00000,7.944863e-006
 543.00000,104.37280,4.121891e-003,0.30001,60.00000,7.944555e-006
 544.00000,104.57688,4.129869e-003,0.30000,60.00000,7.944675e-006
 545.00000,104.78148,4.137564e-003,0.29998,60.00000,7.944172e-006
 546.00000,104.98627,4.145209e-003,0.30007,60.00000,7.943578e-006
 547.00000,105.19110,4.152564e-003,0.30002,60.00000,7.942485e-006
 548.00000,105.39566,4.160327e-003,0.29998,60.00000,7.942069e-006
 549.00000,105.59963,4.167779e-003,0.30001,60.00000,7.941195e-006
 550.00000,105.80334,4.175299e-003,0.30000,60.00000,7.940377e-006
 551.00000,106.00629,4.182848e-003,0.30001,60.00000,7.939608e-006
 552.00000,106.20805,4.190119e-003,0.30001,60.00000,7.938405e-006
 553.00000,106.40888,4.197678e-003,0.30002,60.00000,7.937623e-006
 554.00000,106.60901,4.205097e-003,0.29998,60.00000,7.936601e-006
 555.00000,106.80897,4.212863e-003,0.30001,60.00000,7.936234e-006
 556.00000,107.00870,4.220444e-003,0.30003,60.00000,7.935642e-006
 557.00000,107.20883,4.228355e-003,0.30001,60.00000,7.935469e-006
 558.00000,107.40935,4.236110e-003,0.30001,60.00000,7.935234e-006
 559.00000,107.61071,4.244165e-003,0.30001,60.00000,7.935370e-006
 560.00000,107.81307,4.252102e-003,0.30004,60.00000,7.935408e-006
 561.00000,108.01635,4.259969e-003,0.30002,60.00000,7.935320e-006
 562.00000,108.22061,4.268019e-003,0.30004,60.00000,7.935518e-006
 563.00000,108.42509,4.275925e-003,0.30003,60.00000,7.935481e-006
 564.00000,108.62969,4.283686e-003,0.30000,60.00000,7.935148e-006
 565.00000,108.83375,4.290942e-003,0.30000,60.00000,7.933912e-006
 566.00000,109.03680,4.298438e-003,0.29999,60.00000,7.933072e-006
 567.00000,109.23981,4.305754e-003,0.30000,60.00000,7.931917e-006
 568.00000,109.44282,4.313024e-003,0.30002,60.00000,7.930698e-006
 569.00000,109.64615,4.320530e-003,0.29999,60.00000,7.929891e-006
 570.00000,109.85033,4.327915e-003,0.29998,60.00000,7.928852e-006
 571.00000,110.05509,4.335759e-003,0.30002,60.00000,7.928698e-006
 572.00000,110.25996,4.343331e-003,0.30000,60.00000,7.928098e-006
 573.00000,110.46493,4.351088e-003,0.29998,60.00000,7.927781e-006
 574.00000,110.66999,4.358923e-003,0.30000,60.00000,7.927624e-006
 575.00000,110.87470,4.366954e-003,0.30003,60.00000,7.927794e-006
 576.00000,111.07824,4.374893e-003,0.30000,60.00000,7.927856e-006
 577.00000,111.28060,4.382739e-003,0.29998,60.00000,7.927636e-006
 578.00000,111.48229,4.390578e-003,0.30001,60.00000,7.927524e-006
 579.00000,111.68416,4.398331e-003,0.30004,60.00000,7.927183e-006
 580.00000,111.88667,4.406276e-003,0.29999,60.00000,7.927206e-006
 581.00000,112.09004,4.414118e-003,0.30001,60.00000,7.927094e-006
 582.00000,112.29483,4.422232e-003,0.29998,60.00000,7.927398e-006
 583.00000,112.50098,4.429933e-003,0.29998,60.00000,7.927035e-006
 584.00000,112.70803,4.437990e-003,0.29995,60.00000,7.927251e-006
 585.00000,112.91532,4.445597e-003,0.30003,60.00000,7.926689e-006
 586.00000,113.12221,4.453581e-003,0.30001,60.00000,7.926751e-006
 587.00000,113.32800,4.461442e-003,0.29999,60.00000,7.926604e-006
 588.00000,113.53272,4.469357e-003,0.30000,60.00000,7.926628e-006
 589.00000,113.73685,4.477342e-003,0.30003,60.00000,7.926696e-006
 590.00000,113.94040,4.485302e-003,0.29999,60.00000,7.926787e-006
 591.00000,114.14339,4.493152e-003,0.30000,60.00000,7.926667e-006
 592.00000,114.34652,4.501284e-003,0.29996,60.00000,7.926961e-006
 593.00000,114.54993,4.508946e-003,0.30002,60.00000,7.926547e-006
 594.00000,114.75322,4.516734e-003,0.30003,60.00000,7.926266e-006
 595.00000,114.95616,4.524367e-003,0.30000,60.00000,7.925781e-006
 596.00000,115.15842,4.532146e-003,0.29994,60.00000,7.925472e-006
 597.00000,115.36060,4.539843e-003,0.29999,60.00000,7.925081e-006
 598.00000,115.56321,4.547893e-003,0.29997,60.00000,7.925273e-006
 599.00000,115.76559,4.555562e-003,0.30000,60.00000,7.924880e-006
 600.00000,115.96789,4.563417e-003,0.30001,60.00000,7.924831e-006
 601.00000,116.16998,4.571679e-003,0.29999,60.00000,7.925336e-006
 602.00000,116.37140,4.579329e-003,0.30001,60.00000,7.924879e-006
 603.00000,116.57207,4.587160e-003,0.29999,60.00000,7.924735e-006
 604.00000,116.77164,4.594996e-003,0.30000,60.00000,7.924625e-006
 605.00000,116.97081,4.602958e-003,0.29999,60.00000,7.924630e-006
 606.00000,117.17037,4.610950e-003,0.29999,60.00000,7.924706e-006
 607.00000,117.37023,4.618640e-003,0.29998,60.00000,7.924280e-006
 608.00000,117.57030,4.626714e-003,0.30001,60.00000,7.924534e-006
 609.00000,117.77076,4.634445e-003,0.30002,60.00000,7.924268e-006
 610.00000,117.97151,4.642308e-003,0.30001,60.00000,7.924121e-006
 611.00000,118.17302,4.650379e-003,0.30000,60.00000,7.924319e-006
 612.00000,118.37554,4.658119e-003,0.29999,60.00000,7.924074e-006
 613.00000,118.57847,4.665916e-003,0.30000,60.00000,7.923858e-006
 614.00000,118.78219,4.673592e-003,0.30002,60.00000,7.923395e-006
 615.00000,118.98620,4.681473e-003,0.29998,60.00000,7.923313e-006
 616.00000,119.19013,4.689197e-003,0.29999,60.00000,7.923050e-006
 617.00000,119.39357,4.696797e-003,0.30002,60.00000,7.922471e-006
 618.00000,119.59558,4.704359e-003,0.30002,60.00000,7.921905e-006
 619.00000,119.79656,4.712247e-003,0.30001,60.00000,7.921731e-006
 620.00000,119.99717,4.720127e-003,0.30000,60.00000,7.921671e-006
 621.00000,120.19808,4.728113e-003,0.29998,60.00000,7.921786e-006
 622.00000,120.39955,4.736211e-003,0.29997,60.00000,7.922138e-006
 623.00000,120.60209,4.744329e-003,0.30001,60.00000,7.922434e-006
 624.00000,120.80619,4.752564e-003,0.29999,60.00000,7.922998e-006
 625.00000,121.01145,4.760522e-003,0.30001,60.00000,7.923061e-006
 626.00000,121.21691,4.768813e-003,0.30000,60.00000,7.923692e-006
 627.00000,121.42233,4.776749e-003,0.30002,60.00000,7.923739e-006
 628.00000,121.62750,4.785073e-003,0.29998,60.00000,7.924308e-006
 629.00000,121.83176,4.792646e-003,0.29999,60.00000,7.923809e-006
 630.00000,122.03496,4.800469e-003,0.30002,60.00000,7.923588e-006
 631.00000,122.23760,4.808627e-003,0.29999,60.00000,7.923986e-006
 632.00000,122.43986,4.816707e-003,0.29999,60.00000,7.924262e-006
 633.00000,122.64199,4.824811e-003,0.30000,60.00000,7.924527e-006
 634.00000,122.84406,4.832815e-003,0.30000,60.00000,7.924682e-006
 635.00000,123.04649,4.841189e-003,0.30001,60.00000,7.925362e-006
 636.00000,123.24970,4.849588e-003,0.30001,60.00000,7.926183e-006
 637.00000,123.45310,4.857649e-003,0.30005,60.00000,7.926445e-006
 638.00000,123.65591,4.865830e-003,0.30000,60.00000,7.926829e-006
 639.00000,123.85840,4.874375e-003,0.30001,60.00000,7.927841e-006
 640.00000,124.06078,4.882551e-003,0.29996,60.00000,7.928237e-006
 641.00000,124.26293,4.891084e-003,0.30000,60.00000,7.929205e-006
 642.00000,124.46493,4.899360e-003,0.30005,60.00000,7.929796e-006
 643.00000,124.66701,4.908113e-003,0.30001,60.00000,7.931133e-006
 644.00000,124.86937,4.916807e-003,0.29998,60.00000,7.932368e-006
 645.00000,125.07204,4.925659e-003,0.30001,60.00000,7.933875e-006
 646.00000,125.27553,4.934539e-003,0.29997,60.00000,7.935419e-006
 647.00000,125.47899,4.943193e-003,0.30002,60.00000,7.936581e-006
 648.00000,125.68216,4.951826e-003,0.30001,60.00000,7.937714e-006
 649.00000,125.88593,4.960548e-003,0.30000,60.00000,7.938923e-006
 650.00000,126.08998,4.968491e-003,0.30000,60.00000,7.939011e-006
 651.00000,126.29467,4.976286e-003,0.30000,60.00000,7.938733e-006
 652.00000,126.49947,4.984276e-003,0.30000,60.00000,7.938859e-006
 653.00000,126.70373,4.992226e-003,0.30000,60.00000,7.938844e-006
 654.00000,126.90794,5.000139e-003,0.29999,60.00000,7.938859e-006
 655.00000,127.11232,5.008462e-003,0.29999,60.00000,7.939395e-006
 656.00000,127.31722,5.017315e-003,0.29999,60.00000,7.940888e-006
 657.00000,127.52311,5.026200e-003,0.29999,60.00000,7.942385e-006
 658.00000,127.73065,5.035200e-003,0.30002,60.00000,7.944082e-006
 659.00000,127.93984,5.044416e-003,0.30000,60.00000,7.946155e-006
 660.00000,128.14970,5.053691e-003,0.30001,60.00000,7.948267e-006
 661.00000,128.35927,5.062257e-003,0.30003,60.00000,7.949190e-006
 662.00000,128.56805,5.071251e-003,0.30002,60.00000,7.950884e-006
 663.00000,128.77638,5.080004e-003,0.29998,60.00000,7.952142e-006
 664.00000,128.98443,5.088690e-003,0.29998,60.00000,7.953267e-006
 665.00000,129.19222,5.097168e-003,0.30002,60.00000,7.954085e-006
 666.00000,129.39964,5.105889e-003,0.29998,60.00000,7.955291e-006
 667.00000,129.60704,5.114447e-003,0.30000,60.00000,7.956249e-006
 668.00000,129.81455,5.123095e-003,0.30000,60.00000,7.957302e-006
 669.00000,130.02107,5.131479e-003,0.29999,60.00000,7.958073e-006
 670.00000,130.22598,5.139854e-003,0.30002,60.00000,7.958686e-006
 671.00000,130.42967,5.147683e-003,0.29998,60.00000,7.958451e-006
 672.00000,130.63296,5.155952e-003,0.30001,60.00000,7.958942e-006
 673.00000,130.83647,5.164334e-003,0.29999,60.00000,7.959535e-006
 674.00000,131.04040,5.172747e-003,0.30000,60.00000,7.960299e-006
 675.00000,131.24521,5.181487e-003,0.30000,60.00000,7.961448e-006
 676.00000,131.45109,5.190284e-003,0.29998,60.00000,7.962779e-006
 677.00000,131.65809,5.199041e-003,0.29999,60.00000,7.964050e-006
 678.00000,131.86550,5.207631e-003,0.30001,60.00000,7.965013e-006
 679.00000,132.07181,5.216591e-003,0.30001,60.00000,7.966578e-006
 680.00000,132.27643,5.224874e-003,0.29998,60.00000,7.967042e-006
 681.00000,132.47956,5.232975e-003,0.29997,60.00000,7.967235e-006
 682.00000,132.68163,5.240837e-003,0.30000,60.00000,7.967055e-006
 683.00000,132.88350,5.248683e-003,0.30002,60.00000,7.966877e-006
 684.00000,133.08502,5.256908e-003,0.30000,60.00000,7.967295e-006
 685.00000,133.28609,5.265041e-003,0.30000,60.00000,7.967529e-006
 686.00000,133.48769,5.273254e-003,0.30004,60.00000,7.967897e-006
 687.00000,133.68959,5.281551e-003,0.29998,60.00000,7.968446e-006
 688.00000,133.89182,5.289943e-003,0.30001,60.00000,7.969066e-006
 689.00000,134.09453,5.298316e-003,0.30007,60.00000,7.969623e-006
 690.00000,134.29695,5.306834e-003,0.30000,60.00000,7.970445e-006
 691.00000,134.49659,5.315143e-003,0.29998,60.00000,7.971075e-006
 692.00000,134.69107,5.323203e-003,0.29998,60.00000,7.971198e-006
 693.00000,134.88073,5.330958e-003,0.29999,60.00000,7.970865e-006
 694.00000,135.06766,5.339051e-003,0.29999,60.00000,7.970982e-006
 695.00000,135.25436,5.347544e-003,0.30000,60.00000,7.971685e-006
 696.00000,135.44293,5.355898e-003,0.30003,60.00000,7.972344e-006
 697.00000,135.63504,5.364830e-003,0.29999,60.00000,7.973731e-006
 698.00000,135.83177,5.373647e-003,0.29999,60.00000,7.974958e-006
 699.00000,136.03311,5.382620e-003,0.29999,60.00000,7.976540e-006
 700.00000,136.23899,5.391428e-003,0.30001,60.00000,7.977722e-006
 701.00000,136.44932,5.400121e-003,0.30000,60.00000,7.978817e-006
 702.00000,136.66242,5.408726e-003,0.30002,60.00000,7.979807e-006
 703.00000,136.87578,5.417005e-003,0.30001,60.00000,7.980293e-006
 704.00000,137.08775,5.425208e-003,0.30003,60.00000,7.980598e-006
 705.00000,137.29729,5.433223e-003,0.30000,60.00000,7.980647e-006
 706.00000,137.50379,5.441075e-003,0.30003,60.00000,7.980466e-006
 707.00000,137.70715,5.449053e-003,0.29998,60.00000,7.980490e-006
 708.00000,137.90737,5.457010e-003,0.29998,60.00000,7.980441e-006
 709.00000,138.10485,5.464961e-003,0.30002,60.00000,7.980380e-006
 710.00000,138.30039,5.472584e-003,0.30001,60.00000,7.979827e-006
 711.00000,138.49513,5.480429e-003,0.30003,60.00000,7.979647e-006
 712.00000,138.68961,5.488673e-003,0.30002,60.00000,7.980007e-006
 713.00000,138.88367,5.497074e-003,0.29998,60.00000,7.980602e-006
 714.00000,139.07830,5.505447e-003,0.30001,60.00000,7.981164e-006
 715.00000,139.27496,5.514374e-003,0.29999,60.00000,7.982524e-006
 716.00000,139.47393,5.523209e-003,0.30000,60.00000,7.983868e-006
 717.00000,139.67449,5.532002e-003,0.30005,60.00000,7.984929e-006
 718.00000,139.87631,5.540896e-003,0.30001,60.00000,7.986310e-006
 719.00000,140.08017,5.549691e-003,0.30000,60.00000,7.987405e-006
 720.00000,140.28526,5.558206e-003,0.30001,60.00000,7.988239e-006
 721.00000,140.49096,5.566739e-003,0.30001,60.00000,7.989034e-006
 722.00000,140.69653,5.574815e-003,0.30002,60.00000,7.989192e-006
 723.00000,140.90172,5.583064e-003,0.29999,60.00000,7.989563e-006
 724.00000,141.10619,5.591264e-003,0.30002,60.00000,7.989858e-006
 725.00000,141.30909,5.599079e-003,0.29997,60.00000,7.989589e-006
 726.00000,141.51037,5.606697e-003,0.30004,60.00000,7.989067e-006
 727.00000,141.71021,5.614449e-003,0.30000,60.00000,7.988751e-006
 728.00000,141.90897,5.622238e-003,0.30002,60.00000,7.988452e-006
 729.00000,142.10720,5.630439e-003,0.30000,60.00000,7.988734e-006
 730.00000,142.30539,5.638590e-003,0.30004,60.00000,7.988935e-006
 731.00000,142.50370,5.646606e-003,0.30002,60.00000,7.989024e-006
 732.00000,142.70208,5.654987e-003,0.30000,60.00000,7.989530e-006
 733.00000,142.90022,5.663386e-003,0.30001,60.00000,7.990154e-006
 734.00000,143.09855,5.671764e-003,0.29995,60.00000,7.990728e-006
 735.00000,143.29675,5.679925e-003,0.30000,60.00000,7.990964e-006
 736.00000,143.49479,5.688343e-003,0.30001,60.00000,7.991570e-006
 737.00000,143.69275,5.696926e-003,0.30000,60.00000,7.992400e-006
 738.00000,143.89022,5.705202e-003,0.30000,60.00000,7.992802e-006
 739.00000,144.08765,5.713495e-003,0.30001,60.00000,7.993225e-006
 740.00000,144.28506,5.721999e-003,0.29999,60.00000,7.993874e-006
 741.00000,144.48232,5.730356e-003,0.29999,60.00000,7.994397e-006
 742.00000,144.67961,5.738580e-003,0.29999,60.00000,7.994755e-006
 743.00000,144.87665,5.747255e-003,0.30001,60.00000,7.995692e-006
 744.00000,145.07338,5.755845e-003,0.29999,60.00000,7.996534e-006
 745.00000,145.27076,5.764455e-003,0.30000,60.00000,7.997395e-006
 746.00000,145.46906,5.773102e-003,0.30001,60.00000,7.998334e-006
 747.00000,145.66763,5.781640e-003,0.29999,60.00000,7.999050e-006
 748.00000,145.86633,5.790191e-003,0.30000,60.00000,7.999846e-006
 749.00000,146.06510,5.798751e-003,0.29999,60.00000,8.000642e-006
 750.00000,146.26356,5.807237e-003,0.29999,60.00000,8.001298e-006
 751.00000,146.46198,5.815812e-003,0.30000,60.00000,8.002080e-006
 752.00000,146.66042,5.824419e-003,0.29997,60.00000,8.002906e-006
 753.00000,146.85845,5.833123e-003,0.30002,60.00000,8.003886e-006
 754.00000,147.05605,5.841723e-003,0.30002,60.00000,8.004733e-006
 755.00000,147.25336,5.850471e-003,0.30000,60.00000,8.005698e-006
 756.00000,147.45024,5.859008e-003,0.29998,60.00000,8.006447e-006
 757.00000,147.64669,5.867723e-003,0.30001,60.00000,8.007416e-006
 758.00000,147.84309,5.876377e-003,0.30000,60.00000,8.008354e-006
 759.00000,148.03996,5.885164e-003,0.29999,60.00000,8.009387e-006
 760.00000,148.23691,5.893922e-003,0.29999,60.00000,8.010432e-006
 761.00000,148.43376,5.902964e-003,0.30002,60.00000,8.011813e-006
 762.00000,148.63087,5.911947e-003,0.29998,60.00000,8.013179e-006
 763.00000,148.82853,5.920769e-003,0.30001,60.00000,8.014218e-006
 764.00000,149.02665,5.929902e-003,0.29999,60.00000,8.015755e-006
 765.00000,149.22511,5.938987e-003,0.30000,60.00000,8.017253e-006
 766.00000,149.42395,5.948246e-003,0.29999,60.00000,8.018936e-006
 767.00000,149.62305,5.957450e-003,0.30002,60.00000,8.020545e-006
 768.00000,149.82153,5.966576e-003,0.30002,60.00000,8.022044e-006
 769.00000,150.01923,5.976005e-003,0.30000,60.00000,8.023923e-006
 770.00000,150.21659,5.985318e-003,0.30000,60.00000,8.025695e-006
 771.00000,150.41404,5.994652e-003,0.29998,60.00000,8.027440e-006
 772.00000,150.61215,6.004089e-003,0.29997,60.00000,8.029379e-006
 773.00000,150.81151,6.013695e-003,0.29999,60.00000,8.031435e-006
 774.00000,151.01204,6.023179e-003,0.30000,60.00000,8.033442e-006
 775.00000,151.21278,6.032787e-003,0.29999,60.00000,8.035542e-006
 776.00000,151.41307,6.041789e-003,0.30000,60.00000,8.036876e-006
 777.00000,151.61297,6.051126e-003,0.29999,60.00000,8.038580e-006
 778.00000,151.81223,6.060669e-003,0.30001,60.00000,8.040584e-006
 779.00000,152.01080,6.070153e-003,0.30000,60.00000,8.042531e-006
 780.00000,152.20879,6.079705e-003,0.30001,60.00000,8.044502e-006
 781.00000,152.40681,6.089730e-003,0.30000,60.00000,8.047136e-006
 782.00000,152.60523,6.099647e-003,0.29999,60.00000,8.049658e-006
 783.00000,152.80382,6.109843e-003,0.30000,60.00000,8.052493e-006
 784.00000,153.00267,6.119847e-003,0.30003,60.00000,8.055061e-006
 785.00000,153.20160,6.130149e-003,0.29999,60.00000,8.058046e-006
 786.00000,153.40077,6.140139e-003,0.30001,60.00000,8.060629e-006
 787.00000,153.60043,6.150355e-003,0.29998,60.00000,8.063481e-006
 788.00000,153.79992,6.160311e-003,0.29999,60.00000,8.065942e-006
 789.00000,153.99924,6.170510e-003,0.29999,60.00000,8.068780e-006
 790.00000,154.19873,6.180453e-003,0.29999,60.00000,8.071230e-006
 791.00000,154.39829,6.190209e-003,0.30000,60.00000,8.073460e-006
 792.00000,154.59827,6.200283e-003,0.30002,60.00000,8.076079e-006
 793.00000,154.79825,6.209759e-003,0.30004,60.00000,8.077886e-006
 794.00000,154.99924,6.219667e-003,0.29999,60.00000,8.080250e-006
 795.00000,155.20212,6.229806e-003,0.29999,60.00000,8.083028e-006
 796.00000,155.40403,6.239793e-003,0.30000,60.00000,8.085521e-006
 797.00000,155.60341,6.249645e-003,0.30001,60.00000,8.087789e-006
 798.00000,155.80102,6.259211e-003,0.30000,60.00000,8.089741e-006
 799.00000,155.99769,6.269188e-003,0.30000,60.00000,8.092151e-006
 800.00000,156.19373,6.278890e-003,0.30000,60.00000,8.094275e-006
 801.00000,156.38966,6.289008e-003,0.29999,60.00000,8.096851e-006
 802.00000,156.58568,6.298866e-003,0.30003,60.00000,8.099121e-006
 803.00000,156.78206,6.308806e-003,0.30000,60.00000,8.101544e-006
 804.00000,156.97908,6.318787e-003,0.30002,60.00000,8.103955e-006
 805.00000,157.17619,6.328864e-003,0.30002,60.00000,8.106540e-006
 806.00000,157.37364,6.339174e-003,0.29999,60.00000,8.109349e-006
 807.00000,157.57166,6.349374e-003,0.29999,60.00000,8.112056e-006
 808.00000,157.76964,6.359142e-003,0.30000,60.00000,8.114124e-006
 809.00000,157.96706,6.368695e-003,0.30001,60.00000,8.116009e-006
 810.00000,158.16401,6.377965e-003,0.30003,60.00000,8.117506e-006
 811.00000,158.36060,6.387291e-003,0.29998,60.00000,8.119026e-006
 812.00000,158.55689,6.397066e-003,0.30002,60.00000,8.121177e-006
 813.00000,158.75312,6.406940e-003,0.30000,60.00000,8.123385e-006
 814.00000,158.95038,6.416734e-003,0.29998,60.00000,8.125496e-006
 815.00000,159.14948,6.426851e-003,0.29999,60.00000,8.128047e-006
 816.00000,159.34958,6.436780e-003,0.29999,60.00000,8.130332e-006
 817.00000,159.54989,6.446755e-003,0.29999,60.00000,8.132734e-006
 818.00000,159.74999,6.456531e-003,0.30001,60.00000,8.134772e-006
 819.00000,159.94862,6.466475e-003,0.30001,60.00000,8.137094e-006
 820.00000,160.14597,6.476553e-003,0.30001,60.00000,8.139549e-006
 821.00000,160.34271,6.486311e-003,0.29999,60.00000,8.141597e-006
 822.00000,160.53978,6.496479e-003,0.29999,60.00000,8.144140e-006
 823.00000,160.73771,6.506533e-003,0.30001,60.00000,8.146553e-006
 824.00000,160.93584,6.516785e-003,0.30003,60.00000,8.149232e-006
 825.00000,161.13426,6.527291e-003,0.29998,60.00000,8.152151e-006
 826.00000,161.33369,6.537296e-003,0.30001,60.00000,8.154523e-006
 827.00000,161.53447,6.547995e-003,0.30000,60.00000,8.157706e-006
 828.00000,161.73598,6.558153e-003,0.30001,60.00000,8.160217e-006
 829.00000,161.93674,6.568404e-003,0.30001,60.00000,8.162807e-006
 830.00000,162.13522,6.578271e-003,0.29999,60.00000,8.164957e-006
 831.00000,162.33153,6.588282e-003,0.30003,60.00000,8.167284e-006
 832.00000,162.52667,6.598624e-003,0.29999,60.00000,8.169944e-006
 833.00000,162.72161,6.608974e-003,0.30001,60.00000,8.172647e-006
 834.00000,162.91666,6.619138e-003,0.30001,60.00000,8.175167e-006
 835.00000,163.11196,6.629529e-003,0.29999,60.00000,8.177910e-006
 836.00000,163.30798,6.639771e-003,0.30002,60.00000,8.180431e-006
 837.00000,163.50504,6.650091e-003,0.30000,60.00000,8.183077e-006
 838.00000,163.70330,6.660957e-003,0.29999,60.00000,8.186443e-006
 839.00000,163.90270,6.671235e-003,0.29998,60.00000,8.188999e-006
 840.00000,164.10298,6.681645e-003,0.30001,60.00000,8.191764e-006
 841.00000,164.30372,6.692189e-003,0.30001,60.00000,8.194651e-006
 842.00000,164.50437,6.702551e-003,0.30002,60.00000,8.197359e-006
 843.00000,164.70498,6.712905e-003,0.30001,60.00000,8.199974e-006
 844.00000,164.90511,6.723141e-003,0.30002,60.00000,8.202430e-006
 845.00000,165.10505,6.732813e-003,0.30000,60.00000,8.204313e-006
 846.00000,165.30557,6.742539e-003,0.30001,60.00000,8.206136e-006
 847.00000,165.50643,6.752490e-003,0.30002,60.00000,8.208315e-006
 848.00000,165.70765,6.763287e-003,0.30000,60.00000,8.211481e-006
 849.00000,165.90896,6.774477e-003,0.30002,60.00000,8.215113e-006
 850.00000,166.10990,6.786407e-003,0.30000,60.00000,8.219610e-006
 851.00000,166.31073,6.798071e-003,0.30000,60.00000,8.223813e-006
 852.00000,166.51147,6.809874e-003,0.30001,60.00000,8.228188e-006
 853.00000,166.71188,6.821231e-003,0.29998,60.00000,8.231967e-006
 854.00000,166.91230,6.832279e-003,0.30000,60.00000,8.235432e-006
 855.00000,167.11324,6.842425e-003,0.30001,60.00000,8.237715e-006
 856.00000,167.31516,6.852509e-003,0.30001,60.00000,8.239970e-006
 857.00000,167.51828,6.862264e-003,0.29998,60.00000,8.241746e-006
 858.00000,167.72202,6.871857e-003,0.30002,60.00000,8.243430e-006
 859.00000,167.92578,6.881093e-003,0.30000,60.00000,8.244641e-006
 860.00000,168.12886,6.890559e-003,0.30000,60.00000,8.246051e-006
 861.00000,168.33071,6.899802e-003,0.29999,60.00000,8.247303e-006
 862.00000,168.53123,6.908868e-003,0.29999,60.00000,8.248264e-006
 863.00000,168.72972,6.918405e-003,0.29999,60.00000,8.249842e-006
 864.00000,168.92600,6.928167e-003,0.30002,60.00000,8.251618e-006
 865.00000,169.12076,6.938301e-003,0.29999,60.00000,8.253877e-006
 866.00000,169.31598,6.948313e-003,0.29998,60.00000,8.255950e-006
 867.00000,169.51224,6.958451e-003,0.30001,60.00000,8.258215e-006
 868.00000,169.70864,6.968882e-003,0.30001,60.00000,8.260814e-006
 869.00000,169.90498,6.979155e-003,0.30001,60.00000,8.263210e-006
 870.00000,170.10117,6.989585e-003,0.30001,60.00000,8.265805e-006
 871.00000,170.29694,6.999768e-003,0.29998,60.00000,8.268068e-006
 872.00000,170.49301,7.009974e-003,0.29999,60.00000,8.270366e-006
 873.00000,170.68950,7.020055e-003,0.29999,60.00000,8.272534e-006
 874.00000,170.88584,7.030256e-003,0.30001,60.00000,8.274805e-006
 875.00000,171.08211,7.040630e-003,0.30000,60.00000,8.277325e-006
 876.00000,171.27866,7.051126e-003,0.29998,60.00000,8.279910e-006
 877.00000,171.47595,7.061484e-003,0.30000,60.00000,8.282347e-006
 878.00000,171.67421,7.072238e-003,0.29999,60.00000,8.285276e-006
 879.00000,171.87300,7.083248e-003,0.30004,60.00000,8.288514e-006
 880.00000,172.07196,7.094527e-003,0.30003,60.00000,8.292000e-006
 881.00000,172.27108,7.105409e-003,0.30000,60.00000,8.295042e-006
 882.00000,172.47062,7.116188e-003,0.30000,60.00000,8.297979e-006
 883.00000,172.67042,7.127040e-003,0.30001,60.00000,8.300968e-006
 884.00000,172.86962,7.137722e-003,0.30001,60.00000,8.303761e-006
 885.00000,173.06817,7.148108e-003,0.30001,60.00000,8.306170e-006
 886.00000,173.26643,7.158861e-003,0.30001,60.00000,8.309072e-006
 887.00000,173.46454,7.169175e-003,0.29997,60.00000,8.311400e-006
 888.00000,173.66278,7.179612e-003,0.30002,60.00000,8.313874e-006
 889.00000,173.86129,7.190084e-003,0.30000,60.00000,8.316379e-006
 890.00000,174.06003,7.200642e-003,0.29999,60.00000,8.318960e-006
 891.00000,174.25846,7.210825e-003,0.30004,60.00000,8.321135e-006
 892.00000,174.45614,7.221179e-003,0.29999,60.00000,8.323523e-006
 893.00000,174.65329,7.231397e-003,0.30000,60.00000,8.325735e-006
 894.00000,174.84977,7.241646e-003,0.30000,60.00000,8.327928e-006
 895.00000,175.04585,7.251909e-003,0.30001,60.00000,8.330210e-006
 896.00000,175.24245,7.262308e-003,0.30000,60.00000,8.332513e-006
 897.00000,175.43930,7.272947e-003,0.30001,60.00000,8.335239e-006
 898.00000,175.63650,7.283211e-003,0.30001,60.00000,8.337444e-006
 899.00000,175.83442,7.293505e-003,0.30000,60.00000,8.339657e-006
 900.00000,176.03333,7.303981e-003,0.30001,60.00000,8.342124e-006
 901.00000,176.23272,7.314381e-003,0.30001,60.00000,8.344503e-006
 902.00000,176.43261,7.324903e-003,0.30002,60.00000,8.346979e-006
 903.00000,176.63331,7.334996e-003,0.30001,60.00000,8.349005e-006
 904.00000,176.83462,7.345415e-003,0.30003,60.00000,8.351377e-006
 905.00000,177.03635,7.355719e-003,0.29997,60.00000,8.353620e-006
 906.00000,177.23890,7.366382e-003,0.30000,60.00000,8.356228e-006
 907.00000,177.44171,7.376800e-003,0.29999,60.00000,8.358583e-006
 908.00000,177.64337,7.386987e-003,0.30000,60.00000,8.360690e-006
 909.00000,177.84349,7.397165e-003,0.29999,60.00000,8.362784e-006
 910.00000,178.04240,7.407445e-003,0.30002,60.00000,8.364920e-006
 911.00000,178.24101,7.418084e-003,0.30001,60.00000,8.367510e-006
 912.00000,178.44080,7.428569e-003,0.29998,60.00000,8.369874e-006
 913.00000,178.64226,7.438858e-003,0.30001,60.00000,8.372091e-006
 914.00000,178.84488,7.449193e-003,0.30000,60.00000,8.374324e-006
 915.00000,179.04771,7.459865e-003,0.29997,60.00000,8.376902e-006
 916.00000,179.25101,7.470164e-003,0.30002,60.00000,8.379047e-006
 917.00000,179.45508,7.480538e-003,0.30000,60.00000,8.381304e-006
 918.00000,179.65870,7.490721e-003,0.29999,60.00000,8.383337e-006
 919.00000,179.86170,7.500796e-003,0.30000,60.00000,8.385291e-006
 920.00000,180.06402,7.510668e-003,0.30001,60.00000,8.386911e-006
 921.00000,180.26511,7.520603e-003,0.30000,60.00000,8.388648e-006
 922.00000,180.46525,7.531035e-003,0.30000,60.00000,8.390923e-006
 923.00000,180.66459,7.541205e-003,0.30001,60.00000,8.392931e-006
 924.00000,180.86391,7.551733e-003,0.29999,60.00000,8.395297e-006
 925.00000,181.06324,7.561933e-003,0.30002,60.00000,8.397341e-006
 926.00000,181.26210,7.572145e-003,0.30005,60.00000,8.399394e-006
 927.00000,181.46007,7.582306e-003,0.30001,60.00000,8.401343e-006
 928.00000,181.65707,7.592437e-003,0.30001,60.00000,8.403264e-006
 929.00000,181.85356,7.602529e-003,0.30001,60.00000,8.405160e-006
 930.00000,182.04995,7.612821e-003,0.30000,60.00000,8.407259e-006
 931.00000,182.24637,7.622774e-003,0.30000,60.00000,8.408938e-006
 932.00000,182.44271,7.632959e-003,0.30001,60.00000,8.410940e-006
 933.00000,182.63915,7.643200e-003,0.30002,60.00000,8.412954e-006
 934.00000,182.83572,7.653828e-003,0.30001,60.00000,8.415355e-006
 935.00000,183.03301,7.664344e-003,0.29999,60.00000,8.417714e-006
 936.00000,183.23083,7.674637e-003,0.30001,60.00000,8.419783e-006
 937.00000,183.42803,7.685054e-003,0.30001,60.00000,8.421995e-006
 938.00000,183.62459,7.695512e-003,0.29999,60.00000,8.424184e-006
 939.00000,183.82103,7.705732e-003,0.29999,60.00000,8.426200e-006
 940.00000,184.01807,7.716340e-003,0.30000,60.00000,8.428580e-006
 941.00000,184.21496,7.726602e-003,0.30002,60.00000,8.430593e-006
 942.00000,184.41093,7.736897e-003,0.29999,60.00000,8.432634e-006
 943.00000,184.60654,7.747187e-003,0.30002,60.00000,8.434676e-006
 944.00000,184.80283,7.757718e-003,0.30000,60.00000,8.436973e-006
 945.00000,185.00051,7.768333e-003,0.29999,60.00000,8.439324e-006
 946.00000,185.20030,7.779034e-003,0.30000,60.00000,8.441793e-006
 947.00000,185.40170,7.789546e-003,0.30002,60.00000,8.444092e-006
 948.00000,185.60320,7.799846e-003,0.30002,60.00000,8.446108e-006
 949.00000,185.80464,7.810026e-003,0.30001,60.00000,8.447977e-006
 950.00000,186.00573,7.820344e-003,0.29997,60.00000,8.450049e-006
 951.00000,186.20650,7.830201e-003,0.30001,60.00000,8.451529e-006
 952.00000,186.40699,7.840388e-003,0.29999,60.00000,8.453471e-006
 953.00000,186.60626,7.850169e-003,0.29999,60.00000,8.454862e-006
 954.00000,186.80395,7.860191e-003,0.30001,60.00000,8.456589e-006
 955.00000,187.00004,7.870157e-003,0.30001,60.00000,8.458225e-006
 956.00000,187.19480,7.880590e-003,0.30002,60.00000,8.460334e-006
 957.00000,187.38896,7.890835e-003,0.30000,60.00000,8.462265e-006
 958.00000,187.58274,7.901040e-003,0.30000,60.00000,8.464115e-006
 959.00000,187.77701,7.911588e-003,0.30006,60.00000,8.466376e-006
 960.00000,187.97209,7.922052e-003,0.30001,60.00000,8.468532e-006
 961.00000,188.16745,7.932823e-003,0.30001,60.00000,8.470988e-006
 962.00000,188.36332,7.943383e-003,0.30000,60.00000,8.473235e-006
 963.00000,188.56002,7.954464e-003,0.30002,60.00000,8.476017e-006
 964.00000,188.75780,7.965141e-003,0.29997,60.00000,8.478376e-006
 965.00000,188.95726,7.975838e-003,0.29997,60.00000,8.480774e-006
 966.00000,189.15813,7.986506e-003,0.30000,60.00000,8.483120e-006
 967.00000,189.35927,7.996990e-003,0.30000,60.00000,8.485253e-006
 968.00000,189.56018,8.007313e-003,0.30002,60.00000,8.487197e-006
 969.00000,189.76102,8.017640e-003,0.30002,60.00000,8.489180e-006
 970.00000,189.96192,8.027845e-003,0.29999,60.00000,8.490980e-006
 971.00000,190.16248,8.038306e-003,0.30000,60.00000,8.493121e-006
 972.00000,190.36318,8.048624e-003,0.30002,60.00000,8.495006e-006
 973.00000,190.56417,8.059118e-003,0.29998,60.00000,8.497111e-006
 974.00000,190.76542,8.069321e-003,0.30001,60.00000,8.498962e-006
 975.00000,190.96734,8.079563e-003,0.30000,60.00000,8.500767e-006
 976.00000,191.16857,8.089603e-003,0.29996,60.00000,8.502469e-006
 977.00000,191.36797,8.099479e-003,0.30002,60.00000,8.503871e-006
 978.00000,191.56720,8.109593e-003,0.30001,60.00000,8.505572e-006
 979.00000,191.76825,8.119765e-003,0.30001,60.00000,8.507332e-006
 980.00000,191.97101,8.130090e-003,0.30001,60.00000,8.509258e-006
 981.00000,192.17486,8.140090e-003,0.30001,60.00000,8.510797e-006
 982.00000,192.37904,8.149761e-003,0.30001,60.00000,8.511994e-006
 983.00000,192.58313,8.159393e-003,0.29999,60.00000,8.513203e-006
 984.00000,192.78678,8.169109e-003,0.30003,60.00000,8.514482e-006
 985.00000,192.98926,8.178694e-003,0.29997,60.00000,8.515570e-006
 986.00000,193.19011,8.188049e-003,0.30002,60.00000,8.516429e-006
 987.00000,193.38912,8.197464e-003,0.30002,60.00000,8.517397e-006
 988.00000,193.58636,8.207029e-003,0.29999,60.00000,8.518507e-006
 989.00000,193.78151,8.216747e-003,0.30001,60.00000,8.519735e-006
 990.00000,193.97512,8.226416e-003,0.29999,60.00000,8.520937e-006
 991.00000,194.16850,8.236663e-003,0.30001,60.00000,8.522737e-006
 992.00000,194.36248,8.246630e-003,0.29997,60.00000,8.524264e-006
 993.00000,194.55809,8.256694e-003,0.30000,60.00000,8.525838e-006
 994.00000,194.75483,8.266678e-003,0.30000,60.00000,8.527372e-006
 995.00000,194.95150,8.276547e-003,0.30000,60.00000,8.528754e-006
 996.00000,195.14853,8.286381e-003,0.30001,60.00000,8.530071e-006
 997.00000,195.34580,8.296242e-003,0.30001,60.00000,8.531471e-006
 998.00000,195.54303,8.305903e-003,0.29999,60.00000,8.532606e-006
 999.00000,195.74071,8.315417e-003,0.29999,60.00000,8.533652e-006
1000.00000,195.93879,8.325194e-003,0.30000,60.00000,8.534908e-006
1001.00000,196.13667,8.335167e-003,0.30000,60.00000,8.536380e-006
1002.00000,196.33472,8.344542e-003,0.30000,60.00000,8.537268e-006
1003.00000,196.53296,8.354343e-003,0.29997,60.00000,8.538596e-006
1004.00000,196.73124,8.364061e-003,0.30003,60.00000,8.539781e-006
1005.00000,196.93037,8.373782e-003,0.29999,60.00000,8.540941e-006
1006.00000,197.12997,8.383033e-003,0.29999,60.00000,8.541740e-006
1007.00000,197.32921,8.392200e-003,0.30001,60.00000,8.542351e-006
1008.00000,197.52748,8.401481e-003,0.30003,60.00000,8.543095e-006
1009.00000,197.72522,8.411129e-003,0.30001,60.00000,8.544219e-006
1010.00000,197.92205,8.420523e-003,0.30001,60.00000,8.545123e-006
1011.00000,198.11773,8.429705e-003,0.30000,60.00000,8.545780e-006
1012.00000,198.31325,8.439522e-003,0.30002,60.00000,8.547066e-006
1013.00000,198.50890,8.449128e-003,0.30002,60.00000,8.548126e-006
1014.00000,198.70453,8.458957e-003,0.30000,60.00000,8.549419e-006
1015.00000,198.89988,8.468221e-003,0.30000,60.00000,8.550164e-006
1016.00000,199.09501,8.477533e-003,0.30002,60.00000,8.550953e-006
1017.00000,199.29080,8.486728e-003,0.30002,60.00000,8.551571e-006
1018.00000,199.48746,8.495971e-003,0.29999,60.00000,8.552295e-006
1019.00000,199.68503,8.505260e-003,0.29997,60.00000,8.553039e-006
1020.00000,199.88386,8.515114e-003,0.30000,60.00000,8.554302e-006
1021.00000,200.08420,8.524523e-003,0.30001,60.00000,8.555200e-006
1022.00000,200.28649,8.534409e-003,0.29998,60.00000,8.556550e-006
1023.00000,200.48974,8.543826e-003,0.30002,60.00000,8.557418e-006
1024.00000,200.69185,8.553115e-003,0.30003,60.00000,8.558155e-006
1025.00000,200.89403,8.562540e-003,0.30003,60.00000,8.558985e-006
1026.00000,201.09743,8.571883e-003,0.30004,60.00000,8.559830e-006
1027.00000,201.30119,8.581283e-003,0.30002,60.00000,8.560664e-006
1028.00000,201.50554,8.590702e-003,0.30000,60.00000,8.561481e-006
1029.00000,201.70988,8.599886e-003,0.30001,60.00000,8.562144e-006
1030.00000,201.91258,8.609529e-003,0.30002,60.00000,8.563207e-006
1031.00000,202.11324,8.619120e-003,0.30000,60.00000,8.564222e-006
1032.00000,202.31431,8.628737e-003,0.29999,60.00000,8.565274e-006
1033.00000,202.51779,8.638730e-003,0.30000,60.00000,8.566695e-006
1034.00000,202.72181,8.648366e-003,0.30001,60.00000,8.567789e-006
1035.00000,202.92461,8.657978e-003,0.30002,60.00000,8.568805e-006
1036.00000,203.12506,8.667271e-003,0.30000,60.00000,8.569551e-006
1037.00000,203.32352,8.676473e-003,0.30001,60.00000,8.570179e-006
1038.00000,203.52175,8.686054e-003,0.30000,60.00000,8.571125e-006
1039.00000,203.72068,8.695908e-003,0.30000,60.00000,8.572439e-006
1040.00000,203.92114,8.705542e-003,0.30000,60.00000,8.573444e-006
1041.00000,204.12259,8.714824e-003,0.29999,60.00000,8.574167e-006
1042.00000,204.32466,8.724337e-003,0.30001,60.00000,8.575108e-006
1043.00000,204.52691,8.733507e-003,0.30000,60.00000,8.575718e-006
1044.00000,204.72869,8.742674e-003,0.29999,60.00000,8.576288e-006
1045.00000,204.93016,8.751494e-003,0.30000,60.00000,8.576587e-006
1046.00000,205.13060,8.760677e-003,0.29999,60.00000,8.577154e-006
1047.00000,205.32918,8.769826e-003,0.30000,60.00000,8.577709e-006
1048.00000,205.52695,8.778886e-003,0.29999,60.00000,8.578146e-006
1049.00000,205.72348,8.788016e-003,0.30000,60.00000,8.578722e-006
1050.00000,205.91891,8.797604e-003,0.30000,60.00000,8.579700e-006
1051.00000,206.11431,8.807483e-003,0.30001,60.00000,8.580950e-006
1052.00000,206.30967,8.817544e-003,0.29998,60.00000,8.582424e-006
1053.00000,206.50562,8.827543e-003,0.30000,60.00000,8.583761e-006
1054.00000,206.70265,8.837339e-003,0.30000,60.00000,8.584994e-006
1055.00000,206.90032,8.847203e-003,0.30000,60.00000,8.586209e-006
1056.00000,207.09775,8.856814e-003,0.30000,60.00000,8.587261e-006
1057.00000,207.29504,8.866545e-003,0.30001,60.00000,8.588309e-006
1058.00000,207.49301,8.876156e-003,0.29998,60.00000,8.589345e-006
1059.00000,207.69189,8.886102e-003,0.29999,60.00000,8.590676e-006
1060.00000,207.88961,8.895639e-003,0.30002,60.00000,8.591576e-006
1061.00000,208.08620,8.905111e-003,0.29999,60.00000,8.592426e-006
1062.00000,208.28334,8.914748e-003,0.30000,60.00000,8.593412e-006
1063.00000,208.48144,8.924542e-003,0.30002,60.00000,8.594593e-006
1064.00000,208.68040,8.934068e-003,0.30003,60.00000,8.595515e-006
1065.00000,208.87993,8.943164e-003,0.29999,60.00000,8.595977e-006
1066.00000,209.07956,8.952286e-003,0.30000,60.00000,8.596509e-006
1067.00000,209.27918,8.961488e-003,0.29998,60.00000,8.597075e-006
1068.00000,209.47815,8.970653e-003,0.30000,60.00000,8.597654e-006
1069.00000,209.67603,8.979972e-003,0.29999,60.00000,8.598308e-006
1070.00000,209.87289,8.989514e-003,0.30000,60.00000,8.599244e-006
1071.00000,210.06884,8.998969e-003,0.30000,60.00000,8.600062e-006
1072.00000,210.26417,9.008521e-003,0.30000,60.00000,8.600948e-006
1073.00000,210.46027,9.018138e-003,0.30002,60.00000,8.601889e-006
1074.00000,210.65809,9.027529e-003,0.30002,60.00000,8.602666e-006
1075.00000,210.85741,9.037023e-003,0.29998,60.00000,8.603546e-006
1076.00000,211.05794,9.046479e-003,0.29999,60.00000,8.604348e-006
1077.00000,211.25935,9.055825e-003,0.30000,60.00000,8.605104e-006
1078.00000,211.46069,9.064739e-003,0.30000,60.00000,8.605396e-006
1079.00000,211.66101,9.073932e-003,0.29999,60.00000,8.605943e-006
1080.00000,211.86109,9.083256e-003,0.30002,60.00000,8.606619e-006
1081.00000,212.06268,9.092452e-003,0.30004,60.00000,8.607186e-006
1082.00000,212.26471,9.101638e-003,0.29999,60.00000,8.607726e-006
1083.00000,212.46546,9.110717e-003,0.30000,60.00000,8.608173e-006
1084.00000,212.66572,9.120262e-003,0.29997,60.00000,8.609032e-006
1085.00000,212.86592,9.129741e-003,0.30000,60.00000,8.609889e-006
1086.00000,213.06668,9.138910e-003,0.30000,60.00000,8.610412e-006
1087.00000,213.26770,9.148122e-003,0.30001,60.00000,8.610997e-006
1088.00000,213.46852,9.157359e-003,0.30003,60.00000,8.611575e-006
1089.00000,213.66961,9.166426e-003,0.30000,60.00000,8.612014e-006
1090.00000,213.87173,9.175639e-003,0.29999,60.00000,8.612569e-006
1091.00000,214.07456,9.185018e-003,0.30002,60.00000,8.613308e-006
1092.00000,214.27629,9.194273e-003,0.30001,60.00000,8.613925e-006
1093.00000,214.47635,9.203479e-003,0.30002,60.00000,8.614452e-006
1094.00000,214.67654,9.212994e-003,0.29998,60.00000,8.615288e-006
1095.00000,214.87743,9.222282e-003,0.29998,60.00000,8.615957e-006
1096.00000,215.07856,9.231685e-003,0.30002,60.00000,8.616660e-006
1097.00000,215.28025,9.240772e-003,0.29999,60.00000,8.617085e-006
1098.00000,215.48224,9.250035e-003,0.29999,60.00000,8.617728e-006
1099.00000,215.68430,9.258911e-003,0.30000,60.00000,8.617968e-006
1100.00000,215.88643,9.267858e-003,0.30000,60.00000,8.618272e-006
1101.00000,216.08764,9.276717e-003,0.30001,60.00000,8.618495e-006
1102.00000,216.28760,9.285549e-003,0.29999,60.00000,8.618703e-006
1103.00000,216.48715,9.294583e-003,0.29998,60.00000,8.619057e-006
1104.00000,216.68643,9.303445e-003,0.30004,60.00000,8.619343e-006
1105.00000,216.88481,9.312629e-003,0.30002,60.00000,8.619802e-006
1106.00000,217.08308,9.321835e-003,0.30003,60.00000,8.620390e-006
1107.00000,217.28212,9.331050e-003,0.30003,60.00000,8.620926e-006
1108.00000,217.48105,9.340092e-003,0.30000,60.00000,8.621289e-006
1109.00000,217.68001,9.349041e-003,0.30001,60.00000,8.621618e-006
1110.00000,217.87884,9.357956e-003,0.30002,60.00000,8.621889e-006
1111.00000,218.07687,9.366776e-003,0.30001,60.00000,8.622099e-006
1112.00000,218.27337,9.375612e-003,0.30001,60.00000,8.622267e-006
1113.00000,218.46864,9.384575e-003,0.29999,60.00000,8.622594e-006
1114.00000,218.66556,9.393918e-003,0.30001,60.00000,8.623240e-006
1115.00000,218.86467,9.403427e-003,0.30003,60.00000,8.624056e-006
1116.00000,219.06426,9.412543e-003,0.30003,60.00000,8.624498e-006
1117.00000,219.26431,9.421521e-003,0.29999,60.00000,8.624829e-006
1118.00000,219.46428,9.430868e-003,0.30000,60.00000,8.625505e-006
1119.00000,219.66346,9.439728e-003,0.30000,60.00000,8.625732e-006
1120.00000,219.86125,9.448764e-003,0.30000,60.00000,8.626119e-006
1121.00000,220.05737,9.457621e-003,0.30001,60.00000,8.626349e-006
1122.00000,220.25322,9.466756e-003,0.30002,60.00000,8.626790e-006
1123.00000,220.44921,9.476079e-003,0.30001,60.00000,8.627412e-006
1124.00000,220.64509,9.485294e-003,0.29996,60.00000,8.627964e-006
1125.00000,220.84092,9.494511e-003,0.29996,60.00000,8.628494e-006
1126.00000,221.03604,9.503595e-003,0.29999,60.00000,8.628940e-006
1127.00000,221.23055,9.512465e-003,0.29996,60.00000,8.629135e-006
1128.00000,221.42584,9.521629e-003,0.29999,60.00000,8.629574e-006
1129.00000,221.62259,9.530651e-003,0.29999,60.00000,8.629994e-006
1130.00000,221.81970,9.539588e-003,0.30001,60.00000,8.630254e-006
1131.00000,222.01619,9.548957e-003,0.29999,60.00000,8.630919e-006
1132.00000,222.21334,9.557909e-003,0.30000,60.00000,8.631187e-006
1133.00000,222.41342,9.567514e-003,0.30001,60.00000,8.632067e-006
1134.00000,222.61647,9.577052e-003,0.30001,60.00000,8.632939e-006
1135.00000,222.81920,9.586106e-003,0.29999,60.00000,8.633286e-006
1136.00000,223.01980,9.595295e-003,0.29999,60.00000,8.633798e-006
1137.00000,223.21999,9.604663e-003,0.30001,60.00000,8.634449e-006
1138.00000,223.42022,9.613963e-003,0.30003,60.00000,8.635041e-006
1139.00000,223.62059,9.623131e-003,0.29999,60.00000,8.635551e-006
1140.00000,223.82086,9.632612e-003,0.30002,60.00000,8.636315e-006
1141.00000,224.02054,9.642038e-003,0.29999,60.00000,8.636994e-006
1142.00000,224.22101,9.651296e-003,0.29999,60.00000,8.637548e-006
1143.00000,224.42248,9.660628e-003,0.30000,60.00000,8.638210e-006
1144.00000,224.62255,9.669590e-003,0.30001,60.00000,8.638498e-006
1145.00000,224.82122,9.678750e-003,0.29999,60.00000,8.638957e-006
1146.00000,225.02011,9.688053e-003,0.30002,60.00000,8.639574e-006
1147.00000,225.22007,9.697281e-003,0.30001,60.00000,8.640075e-006
1148.00000,225.42060,9.706717e-003,0.30002,60.00000,8.640797e-006
1149.00000,225.62129,9.716325e-003,0.30000,60.00000,8.641659e-006
1150.00000,225.82194,9.725860e-003,0.29998,60.00000,8.642449e-006
1151.00000,226.02286,9.735893e-003,0.30001,60.00000,8.643653e-006
1152.00000,226.22542,9.745241e-003,0.30000,60.00000,8.644345e-006
1153.00000,226.42871,9.755027e-003,0.30000,60.00000,8.645328e-006
1154.00000,226.63154,9.764428e-003,0.29997,60.00000,8.645996e-006
1155.00000,226.83404,9.773854e-003,0.30001,60.00000,8.646707e-006
1156.00000,227.03622,9.783280e-003,0.30001,60.00000,8.647387e-006
1157.00000,227.23780,9.792328e-003,0.29999,60.00000,8.647784e-006
1158.00000,227.43843,9.801349e-003,0.30000,60.00000,8.648088e-006
1159.00000,227.63829,9.810630e-003,0.30002,60.00000,8.648635e-006
1160.00000,227.83714,9.819817e-003,0.30001,60.00000,8.649133e-006
1161.00000,228.03551,9.829360e-003,0.29996,60.00000,8.649912e-006
1162.00000,228.23430,9.838713e-003,0.30002,60.00000,8.650548e-006
1163.00000,228.43274,9.847768e-003,0.30002,60.00000,8.650919e-006
1164.00000,228.63020,9.857203e-003,0.29998,60.00000,8.651549e-006
1165.00000,228.82819,9.866661e-003,0.30002,60.00000,8.652271e-006
1166.00000,229.02757,9.876124e-003,0.30001,60.00000,8.653014e-006
1167.00000,229.22636,9.885404e-003,0.29998,60.00000,8.653558e-006
1168.00000,229.42413,9.894593e-003,0.30000,60.00000,8.654016e-006
1169.00000,229.62179,9.903910e-003,0.29999,60.00000,8.654631e-006
1170.00000,229.81847,9.912888e-003,0.30000,60.00000,8.654899e-006
1171.00000,230.01452,9.922025e-003,0.30001,60.00000,8.655274e-006
1172.00000,230.21191,9.931722e-003,0.29999,60.00000,8.656229e-006
1173.00000,230.41108,9.941188e-003,0.30001,60.00000,8.656905e-006
1174.00000,230.61201,9.950134e-003,0.30000,60.00000,8.657183e-006
1175.00000,230.81424,9.959423e-003,0.30000,60.00000,8.657747e-006
1176.00000,231.01504,9.968159e-003,0.29999,60.00000,8.657828e-006
1177.00000,231.21324,9.976620e-003,0.30000,60.00000,8.657614e-006
1178.00000,231.41055,9.985683e-003,0.30000,60.00000,8.657982e-006
1179.00000,231.60783,9.994994e-003,0.30003,60.00000,8.658559e-006
1180.00000,231.80445,1.000417e-002,0.29999,60.00000,8.658965e-006
1181.00000,232.00164,1.001295e-002,0.30000,60.00000,8.659060e-006
1182.00000,232.20069,1.002224e-002,0.30002,60.00000,8.659677e-006
1183.00000,232.39846,1.003170e-002,0.30003,60.00000,8.660375e-006
1184.00000,232.59292,1.004105e-002,0.30002,60.00000,8.660947e-006
1185.00000,232.78604,1.005163e-002,0.30002,60.00000,8.662607e-006
1186.00000,232.97893,1.006176e-002,0.29998,60.00000,8.663868e-006
1187.00000,233.17231,1.007166e-002,0.30001,60.00000,8.664904e-006
1188.00000,233.36823,1.008181e-002,0.29998,60.00000,8.666232e-006
1189.00000,233.56826,1.009170e-002,0.29997,60.00000,8.667264e-006
1190.00000,233.77235,1.010133e-002,0.30002,60.00000,8.668099e-006
1191.00000,233.97862,1.011047e-002,0.30003,60.00000,8.668553e-006
1192.00000,234.18440,1.011967e-002,0.30003,60.00000,8.669007e-006
1193.00000,234.38832,1.012895e-002,0.30001,60.00000,8.669519e-006
1194.00000,234.58994,1.013788e-002,0.30000,60.00000,8.669757e-006
1195.00000,234.78938,1.014692e-002,0.30002,60.00000,8.670069e-006
1196.00000,234.98704,1.015622e-002,0.30000,60.00000,8.670563e-006
1197.00000,235.18450,1.016557e-002,0.30000,60.00000,8.671145e-006
1198.00000,235.38339,1.017502e-002,0.30004,60.00000,8.671843e-006
1199.00000,235.58375,1.018462e-002,0.29999,60.00000,8.672635e-006
1200.00000,235.78531,1.019413e-002,0.30000,60.00000,8.673358e-006
1201.00000,235.98737,1.020336e-002,0.29999,60.00000,8.673888e-006
1202.00000,236.18654,1.021242e-002,0.30001,60.00000,8.674181e-006
1203.00000,236.38149,1.022173e-002,0.30002,60.00000,8.674715e-006
1204.00000,236.57403,1.023139e-002,0.29999,60.00000,8.675537e-006
1205.00000,236.76588,1.024137e-002,0.29999,60.00000,8.676641e-006
1206.00000,236.95897,1.025148e-002,0.29998,60.00000,8.677832e-006
1207.00000,237.15569,1.026145e-002,0.29999,60.00000,8.678925e-006
1208.00000,237.35652,1.027131e-002,0.29998,60.00000,8.679951e-006
1209.00000,237.56032,1.028094e-002,0.30002,60.00000,8.680723e-006
1210.00000,237.76857,1.029047e-002,0.30001,60.00000,8.681466e-006
1211.00000,237.98087,1.029962e-002,0.29999,60.00000,8.681852e-006
1212.00000,238.19404,1.030907e-002,0.30000,60.00000,8.682527e-006
1213.00000,238.40555,1.031782e-002,0.30000,60.00000,8.682630e-006
1214.00000,238.61302,1.032640e-002,0.30001,60.00000,8.682562e-006
1215.00000,238.81530,1.033523e-002,0.30002,60.00000,8.682662e-006
1216.00000,239.01191,1.034461e-002,0.30001,60.00000,8.683260e-006
1217.00000,239.20288,1.035427e-002,0.30000,60.00000,8.684053e-006
1218.00000,239.38932,1.036374e-002,0.30001,60.00000,8.684684e-006
1219.00000,239.57396,1.037432e-002,0.30002,60.00000,8.686280e-006
1220.00000,239.76108,1.038517e-002,0.30000,60.00000,8.688068e-006
1221.00000,239.95544,1.039596e-002,0.30000,60.00000,8.689842e-006
1222.00000,240.15870,1.040641e-002,0.30001,60.00000,8.691355e-006
1223.00000,240.36824,1.041629e-002,0.29999,60.00000,8.692324e-006
1224.00000,240.57938,1.042548e-002,0.29999,60.00000,8.692772e-006
1225.00000,240.78768,1.043508e-002,0.30000,60.00000,8.693538e-006
1226.00000,240.99140,1.044469e-002,0.30001,60.00000,8.694302e-006
1227.00000,241.18896,1.045424e-002,0.29998,60.00000,8.695084e-006
1228.00000,241.37731,1.046353e-002,0.29997,60.00000,8.695628e-006
1229.00000,241.55726,1.047412e-002,0.30000,60.00000,8.697157e-006
1230.00000,241.73250,1.048427e-002,0.29997,60.00000,8.698319e-006
1231.00000,241.90681,1.049533e-002,0.30000,60.00000,8.700229e-006
1232.00000,242.08396,1.050657e-002,0.30000,60.00000,8.702309e-006
1233.00000,242.26816,1.051775e-002,0.30000,60.00000,8.704330e-006
1234.00000,242.46494,1.052846e-002,0.30002,60.00000,8.706021e-006
1235.00000,242.67829,1.053877e-002,0.29998,60.00000,8.707372e-006
1236.00000,242.90611,1.054749e-002,0.30000,60.00000,8.707392e-006
1237.00000,243.13989,1.055500e-002,0.30001,60.00000,8.706471e-006
1238.00000,243.36750,1.056251e-002,0.30000,60.00000,8.705528e-006
1239.00000,243.57977,1.057014e-002,0.30001,60.00000,8.704694e-006
1240.00000,243.77295,1.057866e-002,0.30002,60.00000,8.704542e-006
1241.00000,243.94979,1.058800e-002,0.29999,60.00000,8.705078e-006
1242.00000,244.11612,1.059826e-002,0.29999,60.00000,8.706269e-006
1243.00000,244.27762,1.060900e-002,0.30002,60.00000,8.707900e-006
1244.00000,244.43915,1.062000e-002,0.29999,60.00000,8.709747e-006
1245.00000,244.60439,1.063158e-002,0.29997,60.00000,8.712094e-006
1246.00000,244.77658,1.064337e-002,0.30001,60.00000,8.714569e-006
1247.00000,244.95847,1.065525e-002,0.30001,60.00000,8.717166e-006
1248.00000,245.15319,1.066647e-002,0.30001,60.00000,8.719236e-006
1249.00000,245.36430,1.067736e-002,0.30000,60.00000,8.721025e-006
1250.00000,245.59684,1.068731e-002,0.30000,60.00000,8.722039e-006
1251.00000,245.85515,1.069615e-002,0.30004,60.00000,8.722185e-006
1252.00000,246.12874,1.070365e-002,0.29999,60.00000,8.721240e-006
1253.00000,246.39528,1.071048e-002,0.30000,60.00000,8.719747e-006
1254.00000,246.63767,1.071757e-002,0.29996,60.00000,8.718460e-006
1255.00000,246.85588,1.072522e-002,0.29999,60.00000,8.717615e-006
1256.00000,247.05382,1.073422e-002,0.30005,60.00000,8.717863e-006
1257.00000,247.23217,1.074433e-002,0.30001,60.00000,8.719016e-006
1258.00000,247.39541,1.075466e-002,0.30002,60.00000,8.720274e-006
1259.00000,247.54983,1.076572e-002,0.29999,60.00000,8.722128e-006
1260.00000,247.70135,1.077772e-002,0.30002,60.00000,8.724702e-006
1261.00000,247.85353,1.079047e-002,0.30002,60.00000,8.727981e-006
1262.00000,248.00952,1.080345e-002,0.30001,60.00000,8.731357e-006
1263.00000,248.17185,1.081610e-002,0.30001,60.00000,8.734529e-006
1264.00000,248.34344,1.082887e-002,0.29998,60.00000,8.737784e-006
1265.00000,248.52787,1.084048e-002,0.30000,60.00000,8.740077e-006
1266.00000,248.73040,1.085214e-002,0.30001,60.00000,8.742463e-006
1267.00000,248.95649,1.086268e-002,0.30001,60.00000,8.743938e-006
1268.00000,249.21415,1.087184e-002,0.30001,60.00000,8.744285e-006
1269.00000,249.50897,1.087891e-002,0.30000,60.00000,8.743000e-006
1270.00000,249.81214,1.088406e-002,0.29999,60.00000,8.740194e-006
1271.00000,250.08231,1.088922e-002,0.30002,60.00000,8.737365e-006
1272.00000,250.31324,1.089589e-002,0.30000,60.00000,8.735729e-006
1273.00000,250.51328,1.090381e-002,0.30002,60.00000,8.735091e-006
1274.00000,250.68947,1.091323e-002,0.30000,60.00000,8.735664e-006
1275.00000,250.84963,1.092408e-002,0.30002,60.00000,8.737257e-006
1276.00000,251.00174,1.093513e-002,0.30000,60.00000,8.739033e-006
1277.00000,251.15128,1.094717e-002,0.29999,60.00000,8.741644e-006
1278.00000,251.30166,1.095994e-002,0.30000,60.00000,8.744847e-006
1279.00000,251.45577,1.097293e-002,0.30001,60.00000,8.748222e-006
1280.00000,251.61671,1.098586e-002,0.30000,60.00000,8.751518e-006
1281.00000,251.78701,1.099796e-002,0.30000,60.00000,8.754233e-006
1282.00000,251.97048,1.101110e-002,0.30000,60.00000,8.757672e-006
1283.00000,252.17333,1.102322e-002,0.30001,60.00000,8.760338e-006
1284.00000,252.40631,1.103448e-002,0.29998,60.00000,8.762356e-006
1285.00000,252.67945,1.104346e-002,0.29997,60.00000,8.762601e-006
1286.00000,252.98018,1.105078e-002,0.30003,60.00000,8.761514e-006
1287.00000,253.26938,1.105648e-002,0.30000,60.00000,8.759214e-006
1288.00000,253.51844,1.106327e-002,0.30000,60.00000,8.757684e-006
1289.00000,253.72273,1.107111e-002,0.30002,60.00000,8.757079e-006
1290.00000,253.89349,1.107983e-002,0.30001,60.00000,8.757002e-006
1291.00000,254.04456,1.109081e-002,0.30000,60.00000,8.758672e-006
1292.00000,254.18567,1.110250e-002,0.30004,60.00000,8.760915e-006
1293.00000,254.32316,1.111525e-002,0.29996,60.00000,8.763971e-006
1294.00000,254.46109,1.112804e-002,0.30002,60.00000,8.767124e-006
1295.00000,254.60310,1.114192e-002,0.29999,60.00000,8.771084e-006
1296.00000,254.75177,1.115487e-002,0.29999,60.00000,8.774404e-006
1297.00000,254.90966,1.116801e-002,0.30000,60.00000,8.777855e-006
1298.00000,255.07974,1.118147e-002,0.29999,60.00000,8.781520e-006
1299.00000,255.26592,1.119336e-002,0.30001,60.00000,8.784010e-006
1300.00000,255.47305,1.120496e-002,0.29999,60.00000,8.786200e-006
1301.00000,255.70619,1.121562e-002,0.30001,60.00000,8.787708e-006
1302.00000,255.97684,1.122447e-002,0.30004,60.00000,8.787783e-006
1303.00000,256.29109,1.123090e-002,0.30000,60.00000,8.786025e-006
1304.00000,256.59897,1.123619e-002,0.30001,60.00000,8.783340e-006
1305.00000,256.86149,1.124200e-002,0.30001,60.00000,8.781106e-006
1306.00000,257.07315,1.124941e-002,0.30000,60.00000,8.780163e-006
1307.00000,257.24553,1.125785e-002,0.30000,60.00000,8.779852e-006
1308.00000,257.39704,1.126895e-002,0.29999,60.00000,8.781552e-006
1309.00000,257.53878,1.128092e-002,0.30014,60.00000,8.783956e-006
1310.00000,257.67775,1.129471e-002,0.29998,60.00000,8.787762e-006
1311.00000,257.81751,1.130860e-002,0.30002,60.00000,8.791724e-006
1312.00000,257.96122,1.132258e-002,0.30001,60.00000,8.795768e-006
1313.00000,258.11121,1.133593e-002,0.30000,60.00000,8.799253e-006
1314.00000,258.26992,1.134937e-002,0.29998,60.00000,8.802869e-006
1315.00000,258.43992,1.136135e-002,0.30000,60.00000,8.805318e-006
1316.00000,258.62386,1.137249e-002,0.30000,60.00000,8.807198e-006
1317.00000,258.82604,1.138327e-002,0.29998,60.00000,8.808690e-006
1318.00000,259.05097,1.139301e-002,0.30002,60.00000,8.809462e-006
1319.00000,259.30321,1.140210e-002,0.30000,60.00000,8.809678e-006
1320.00000,259.59001,1.141109e-002,0.30000,60.00000,8.809845e-006
1321.00000,259.90984,1.141857e-002,0.30001,60.00000,8.808878e-006
1322.00000,260.21517,1.142463e-002,0.30000,60.00000,8.806829e-006
1323.00000,260.46269,1.143209e-002,0.30001,60.00000,8.806001e-006
1324.00000,260.65524,1.144025e-002,0.30001,60.00000,8.805517e-006
1325.00000,260.81664,1.145093e-002,0.29998,60.00000,8.806838e-006
1326.00000,260.96368,1.146320e-002,0.30001,60.00000,8.809405e-006
1327.00000,261.10534,1.147609e-002,0.29999,60.00000,8.812467e-006
1328.00000,261.24688,1.148979e-002,0.29998,60.00000,8.816161e-006
1329.00000,261.39181,1.150337e-002,0.30000,60.00000,8.819822e-006
1330.00000,261.54328,1.151670e-002,0.29998,60.00000,8.823253e-006
1331.00000,261.70329,1.152998e-002,0.29999,60.00000,8.826725e-006
1332.00000,261.87375,1.154310e-002,0.29999,60.00000,8.829990e-006
1333.00000,262.05724,1.155552e-002,0.29998,60.00000,8.832748e-006
1334.00000,262.25589,1.156729e-002,0.30002,60.00000,8.835033e-006
1335.00000,262.47030,1.157857e-002,0.29998,60.00000,8.836894e-006
1336.00000,262.70109,1.158897e-002,0.30001,60.00000,8.838115e-006
1337.00000,262.95059,1.159863e-002,0.30001,60.00000,8.838743e-006
1338.00000,263.22537,1.160768e-002,0.29998,60.00000,8.838917e-006
1339.00000,263.52645,1.161480e-002,0.30002,60.00000,8.837634e-006
1340.00000,263.83495,1.162126e-002,0.30001,60.00000,8.835827e-006
1341.00000,264.17518,1.162834e-002,0.30000,60.00000,8.834492e-006
1342.00000,264.53796,1.163208e-002,0.29998,60.00000,8.830732e-006
1343.00000,264.79241,1.163464e-002,0.30000,60.00000,8.826764e-006
1344.00000,264.94601,1.163945e-002,0.29999,60.00000,8.823621e-006
1345.00000,265.06199,1.164857e-002,0.30003,60.00000,8.823537e-006
1346.00000,265.16376,1.166063e-002,0.30001,60.00000,8.825711e-006
1347.00000,265.25991,1.167470e-002,0.29998,60.00000,8.829494e-006
1348.00000,265.35454,1.168896e-002,0.29999,60.00000,8.833482e-006
1349.00000,265.45051,1.170447e-002,0.29998,60.00000,8.838452e-006
1350.00000,265.54983,1.171998e-002,0.29999,60.00000,8.843412e-006
1351.00000,265.65465,1.173600e-002,0.29997,60.00000,8.848826e-006
1352.00000,265.76725,1.175130e-002,0.30000,60.00000,8.853679e-006
1353.00000,265.88982,1.176636e-002,0.30000,60.00000,8.858427e-006
1354.00000,266.02536,1.178126e-002,0.30000,60.00000,8.862961e-006
1355.00000,266.17648,1.179535e-002,0.29999,60.00000,8.866976e-006
1356.00000,266.34642,1.180759e-002,0.29998,60.00000,8.869549e-006
1357.00000,266.53630,1.181851e-002,0.30003,60.00000,8.871181e-006
1358.00000,266.74428,1.182817e-002,0.30003,60.00000,8.871832e-006
1359.00000,266.96607,1.183649e-002,0.30002,60.00000,8.871413e-006
1360.00000,267.19802,1.184460e-002,0.30000,60.00000,8.870877e-006
1361.00000,267.43674,1.185182e-002,0.29998,60.00000,8.869642e-006
1362.00000,267.67765,1.185892e-002,0.30002,60.00000,8.868354e-006
1363.00000,267.91739,1.186563e-002,0.29999,60.00000,8.866725e-006
1364.00000,268.15520,1.187256e-002,0.30000,60.00000,8.865220e-006
1365.00000,268.39119,1.187944e-002,0.30002,60.00000,8.863803e-006
1366.00000,268.62456,1.188627e-002,0.30001,60.00000,8.862256e-006
1367.00000,268.85576,1.189353e-002,0.30000,60.00000,8.861035e-006
1368.00000,269.08517,1.190024e-002,0.29999,60.00000,8.859492e-006
1369.00000,269.31219,1.190760e-002,0.29999,60.00000,8.858299e-006
1370.00000,269.53781,1.191455e-002,0.29994,60.00000,8.856888e-006
1371.00000,269.76200,1.192137e-002,0.30000,60.00000,8.855378e-006
1372.00000,269.98549,1.192832e-002,0.30002,60.00000,8.853967e-006
1373.00000,270.20822,1.193565e-002,0.30000,60.00000,8.852862e-006
1374.00000,270.42659,1.194220e-002,0.29998,60.00000,8.851125e-006
1375.00000,270.63805,1.194878e-002,0.30000,60.00000,8.849483e-006
1376.00000,270.83935,1.195586e-002,0.30001,60.00000,8.848227e-006
1377.00000,271.02966,1.196340e-002,0.29999,60.00000,8.847159e-006
1378.00000,271.21354,1.197170e-002,0.30002,60.00000,8.846756e-006
1379.00000,271.39567,1.198032e-002,0.30002,60.00000,8.846557e-006
1380.00000,271.57885,1.198917e-002,0.29998,60.00000,8.846555e-006
1381.00000,271.76445,1.199764e-002,0.30001,60.00000,8.846247e-006
1382.00000,271.95302,1.200579e-002,0.30001,60.00000,8.845743e-006
1383.00000,272.14345,1.201386e-002,0.30000,60.00000,8.845205e-006
1384.00000,272.33890,1.202178e-002,0.30000,60.00000,8.844424e-006
1385.00000,272.54192,1.202888e-002,0.30001,60.00000,8.843226e-006
1386.00000,272.74734,1.203492e-002,0.30001,60.00000,8.841125e-006
1387.00000,272.95292,1.204084e-002,0.30000,60.00000,8.838998e-006
1388.00000,273.16068,1.204666e-002,0.29999,60.00000,8.836727e-006
1389.00000,273.37059,1.205203e-002,0.30000,60.00000,8.834250e-006
1390.00000,273.58146,1.205701e-002,0.30001,60.00000,8.831403e-006
1391.00000,273.79197,1.206109e-002,0.30001,60.00000,8.827917e-006
1392.00000,274.00164,1.206465e-002,0.29998,60.00000,8.824045e-006
1393.00000,274.20994,1.206867e-002,0.29999,60.00000,8.820528e-006
1394.00000,274.41579,1.207123e-002,0.29998,60.00000,8.815920e-006
1395.00000,274.61930,1.207448e-002,0.30000,60.00000,8.811846e-006
1396.00000,274.82060,1.207722e-002,0.29998,60.00000,8.807432e-006
1397.00000,275.01802,1.207968e-002,0.29999,60.00000,8.802764e-006
1398.00000,275.21098,1.208336e-002,0.30000,60.00000,8.799043e-006
1399.00000,275.40063,1.208722e-002,0.30001,60.00000,8.795435e-006
1400.00000,275.58919,1.209098e-002,0.29996,60.00000,8.791697e-006

