#EXPORTTYPE:       ,DATA ALL                        
#FILE:             ,李院长 MgO-C C9-骨 C9-基 1400.ngb-dl9
#FORMAT:           ,NETZSCH5                        
#FTYPE:            ,ANSI                            
#IDENTITY:         ,C9-基                            
#DECIMAL:          ,POINT                           
#SEPARATOR:        ,COMMA                           
#MTYPE:            ,DIL                             
#INSTRUMENT:       ,NETZSCH DIL 402SU               
#PROJECT:          ,123                             
#DATE/TIME:        ,2025/6/4 16:10:34 (UTC+8)       
#CORR. FILE:       ,石墨炉 1400度-1.ngb-cl9             
#TEMPCAL:          ,TCALZERO.TMX                    
#LABORATORY:       ,wust                            
#OPERATOR:         ,                                
#REMARK:           ,                                
#SAMPLE:           ,镁碳                              
#SAMPLE LENGTH /mm:,25.08                           
#MATERIAL:         ,镁碳                              
#MEASMODE:         ,Standard Expansion              
#M.RANGE /μm:      ,50000                           
#CORR. CODE:       ,080                             
#RANGE:            ,1403°C/5.0(K/min)/200°C         
#SEGMENT:          ,S2/2                            
#SEG. 2:           ,1403°C/5.0(K/min)/200°C         
#Tref:             ,210.0°C                         

##Temp./°C,Time/min,dL/Lo,Force/N,Gas Flow(protective)/(ml/min),m. CTE(2)/(1/K)
 200.93700,516.18250,-9.538153e-004,0.30000,60.00000,4.507592e-006
 201.93700,515.98968,-9.491074e-004,0.30008,60.00000,4.484193e-006
 202.93700,515.79505,-9.444493e-004,0.29997,60.00000,4.458554e-006
 203.93700,515.59911,-9.403201e-004,0.30003,60.00000,4.512298e-006
 204.93700,515.40181,-9.361003e-004,0.30002,60.00000,4.539026e-006
 205.93700,515.20309,-9.317479e-004,0.29994,60.00000,4.560368e-006
 206.93700,515.00381,-9.271527e-004,0.29988,60.00000,4.591496e-006
 207.93700,514.80503,-9.220844e-004,0.29997,60.00000,4.622545e-006
 208.93700,514.60791,-9.183619e-004,0.29998,60.00000,4.653334e-006
 209.93700,514.41255,-9.129835e-004,0.29989,60.00000,4.683848e-006
 210.93700,514.21858,-9.079435e-004,0.29990,60.00000,4.714146e-006
 211.93700,514.02577,-9.027996e-004,0.29996,60.00000,4.744263e-006
 212.93700,513.83365,-8.978437e-004,0.30006,60.00000,4.774271e-006
 213.93700,513.64141,-8.936491e-004,0.30000,60.00000,4.804298e-006
 214.93700,513.44839,-8.892783e-004,0.29995,60.00000,4.834694e-006
 215.93700,513.25385,-8.842760e-004,0.30003,60.00000,4.831849e-006
 216.93700,513.05741,-8.797851e-004,0.30003,60.00000,4.784486e-006
 217.93700,512.85921,-8.749769e-004,0.29997,60.00000,4.787016e-006
 218.93700,512.65976,-8.701327e-004,0.29999,60.00000,4.793951e-006
 219.93700,512.45997,-8.648080e-004,0.30012,60.00000,4.847423e-006
 220.93700,512.26087,-8.598965e-004,0.30004,60.00000,4.852576e-006
 221.93700,512.06305,-8.548411e-004,0.30003,60.00000,4.868549e-006
 222.93700,511.86699,-8.502274e-004,0.29997,60.00000,4.850524e-006
 223.93700,511.67238,-8.445495e-004,0.29990,60.00000,4.908633e-006
 224.93700,511.47834,-8.403387e-004,0.30006,60.00000,4.862781e-006
 225.93700,511.28456,-8.353205e-004,0.29999,60.00000,4.870623e-006
 226.93700,511.09018,-8.306281e-004,0.30005,60.00000,4.860731e-006
 227.93700,510.89420,-8.266269e-004,0.29998,60.00000,4.813149e-006
 228.93700,510.69725,-8.216037e-004,0.29998,60.00000,4.823279e-006
 229.93700,510.49889,-8.165458e-004,0.29995,60.00000,4.834627e-006
 230.93700,510.29881,-8.111834e-004,0.29999,60.00000,4.861131e-006
 231.93700,510.09853,-8.054962e-004,0.30003,60.00000,4.898130e-006
 232.93700,509.89974,-7.994239e-004,0.30001,60.00000,4.949377e-006
 233.93700,509.70260,-7.933723e-004,0.30014,60.00000,4.996380e-006
 234.93700,509.50690,-7.882554e-004,0.29996,60.00000,5.000300e-006
 235.93700,509.31248,-7.825686e-004,0.29999,60.00000,5.027104e-006
 236.93700,509.11851,-7.776456e-004,0.30004,60.00000,5.023722e-006
 237.93700,508.92404,-7.722119e-004,0.29994,60.00000,5.037595e-006
 238.93700,508.72812,-7.673310e-004,0.29998,60.00000,5.032908e-006
 239.93700,508.53054,-7.624071e-004,0.29999,60.00000,5.028939e-006
 240.93700,508.33175,-7.565784e-004,0.30003,60.00000,5.054611e-006
 241.93700,508.13224,-7.512753e-004,0.29999,60.00000,5.062570e-006
 242.93700,507.93254,-7.453681e-004,0.30001,60.00000,5.088809e-006
 243.93700,507.73342,-7.397695e-004,0.30008,60.00000,5.103889e-006
 244.93700,507.53578,-7.347374e-004,0.29993,60.00000,5.101731e-006
 245.93700,507.33976,-7.298084e-004,0.30001,60.00000,5.097343e-006
 246.93700,507.14494,-7.249614e-004,0.30001,60.00000,5.090396e-006
 247.93700,506.95066,-7.203978e-004,0.30004,60.00000,5.076084e-006
 248.93700,506.75644,-7.158081e-004,0.29999,60.00000,5.063482e-006
 249.93700,506.56149,-7.103010e-004,0.30001,60.00000,5.074893e-006
 250.93700,506.36539,-7.056795e-004,0.29993,60.00000,5.063553e-006
 251.93700,506.16806,-7.002084e-004,0.29999,60.00000,5.073327e-006
 252.93700,505.96953,-6.950059e-004,0.30000,60.00000,5.076428e-006
 253.93700,505.77026,-6.886943e-004,0.29995,60.00000,5.104402e-006
 254.93700,505.57072,-6.829073e-004,0.29998,60.00000,5.119912e-006
 255.93700,505.37223,-6.774772e-004,0.29998,60.00000,5.127039e-006
 256.93700,505.17551,-6.724741e-004,0.30001,60.00000,5.123642e-006
 257.93700,504.97997,-6.681021e-004,0.30003,60.00000,5.108082e-006
 258.93700,504.78509,-6.637777e-004,0.29994,60.00000,5.091648e-006
 259.93700,504.59006,-6.588672e-004,0.30001,60.00000,5.087853e-006
 260.93700,504.39401,-6.534570e-004,0.29998,60.00000,5.094057e-006
 261.93700,504.19667,-6.481174e-004,0.30007,60.00000,5.099586e-006
 262.93700,503.99770,-6.416438e-004,0.29996,60.00000,5.125331e-006
 263.93700,503.79778,-6.359843e-004,0.29997,60.00000,5.135235e-006
 264.93700,503.59785,-6.302948e-004,0.29996,60.00000,5.145364e-006
 265.93700,503.39922,-6.242973e-004,0.30000,60.00000,5.161299e-006
 266.93700,503.20219,-6.188987e-004,0.29999,60.00000,5.165083e-006
 267.93700,503.00585,-6.133415e-004,0.29998,60.00000,5.171194e-006
 268.93700,502.80991,-6.078896e-004,0.29999,60.00000,5.176510e-006
 269.93700,502.61390,-6.030486e-004,0.30001,60.00000,5.171025e-006
 270.93700,502.41724,-5.978545e-004,0.30004,60.00000,5.171182e-006
 271.93700,502.21941,-5.924811e-004,0.29996,60.00000,5.174156e-006
 272.93700,502.02024,-5.872783e-004,0.30001,60.00000,5.174610e-006
 273.93700,501.82065,-5.813734e-004,0.29999,60.00000,5.186058e-006
 274.93700,501.62145,-5.764551e-004,0.30007,60.00000,5.182284e-006
 275.93700,501.42309,-5.703976e-004,0.29999,60.00000,5.195884e-006
 276.93700,501.22593,-5.656876e-004,0.30002,60.00000,5.188250e-006
 277.93700,501.02974,-5.609646e-004,0.29999,60.00000,5.181428e-006
 278.93700,500.83373,-5.562950e-004,0.30002,60.00000,5.174131e-006
 279.93700,500.63754,-5.508510e-004,0.30001,60.00000,5.177418e-006
 280.93700,500.44082,-5.449583e-004,0.29999,60.00000,5.187881e-006
 281.93700,500.24334,-5.384409e-004,0.29997,60.00000,5.206323e-006
 282.93700,500.04566,-5.327712e-004,0.29998,60.00000,5.212805e-006
 283.93700,499.84834,-5.265767e-004,0.30005,60.00000,5.225514e-006
 284.93700,499.65170,-5.208270e-004,0.30005,60.00000,5.232580e-006
 285.93700,499.45558,-5.153814e-004,0.29997,60.00000,5.235412e-006
 286.93700,499.25966,-5.095789e-004,0.30002,60.00000,5.242997e-006
 287.93700,499.06413,-5.038300e-004,0.30000,60.00000,5.249527e-006
 288.93700,498.86933,-4.978864e-004,0.29996,60.00000,5.258482e-006
 289.93700,498.67442,-4.926852e-004,0.30001,60.00000,5.257610e-006
 290.93700,498.47965,-4.873508e-004,0.30004,60.00000,5.258634e-006
 291.93700,498.28505,-4.807817e-004,0.30002,60.00000,5.274474e-006
 292.93700,498.09017,-4.750789e-004,0.30001,60.00000,5.279351e-006
 293.93700,497.89448,-4.689703e-004,0.30004,60.00000,5.289397e-006
 294.93700,497.69830,-4.630636e-004,0.30000,60.00000,5.297026e-006
 295.93700,497.50197,-4.572306e-004,0.30006,60.00000,5.303057e-006
 296.93700,497.30563,-4.518106e-004,0.29996,60.00000,5.304405e-006
 297.93700,497.10962,-4.460683e-004,0.29995,60.00000,5.309448e-006
 298.93700,496.91384,-4.406431e-004,0.30004,60.00000,5.310520e-006
 299.93700,496.71821,-4.350510e-004,0.30002,60.00000,5.313550e-006
 300.93700,496.52277,-4.287979e-004,0.30000,60.00000,5.324571e-006
 301.93700,496.32769,-4.232446e-004,0.30001,60.00000,5.326802e-006
 302.93700,496.13293,-4.173089e-004,0.29999,60.00000,5.333053e-006
 303.93700,495.93860,-4.115307e-004,0.29999,60.00000,5.338077e-006
 304.93700,495.74485,-4.059545e-004,0.30003,60.00000,5.340448e-006
 305.93700,495.55115,-3.997300e-004,0.29999,60.00000,5.349491e-006
 306.93700,495.35729,-3.939461e-004,0.29997,60.00000,5.354088e-006
 307.93700,495.16305,-3.884739e-004,0.30001,60.00000,5.355366e-006
 308.93700,494.96827,-3.821533e-004,0.30000,60.00000,5.365030e-006
 309.93700,494.77288,-3.761603e-004,0.29995,60.00000,5.371547e-006
 310.93700,494.57706,-3.711413e-004,0.30000,60.00000,5.367768e-006
 311.93700,494.38091,-3.648819e-004,0.29998,60.00000,5.376541e-006
 312.93700,494.18426,-3.597467e-004,0.30002,60.00000,5.374186e-006
 313.93700,493.98762,-3.537472e-004,0.30002,60.00000,5.380338e-006
 314.93700,493.79107,-3.481773e-004,0.29999,60.00000,5.382238e-006
 315.93700,493.59447,-3.419906e-004,0.29998,60.00000,5.389756e-006
 316.93700,493.39846,-3.363743e-004,0.30001,60.00000,5.392089e-006
 317.93700,493.20315,-3.305703e-004,0.30001,60.00000,5.395633e-006
 318.93700,493.00824,-3.246320e-004,0.30002,60.00000,5.400865e-006
 319.93700,492.81368,-3.194569e-004,0.30001,60.00000,5.398715e-006
 320.93700,492.61965,-3.145512e-004,0.30000,60.00000,5.394052e-006
 321.93700,492.42569,-3.112281e-004,0.30004,60.00000,5.375915e-006
 322.93700,492.23088,-3.047805e-004,0.30000,60.00000,5.385143e-006
 323.93700,492.03578,-2.994171e-004,0.30002,60.00000,5.385088e-006
 324.93700,491.84008,-2.935506e-004,0.30004,60.00000,5.389070e-006
 325.93700,491.64353,-2.875314e-004,0.30006,60.00000,5.394613e-006
 326.93700,491.44632,-2.827285e-004,0.30001,60.00000,5.389485e-006
 327.93700,491.24830,-2.770017e-004,0.30002,60.00000,5.392413e-006
 328.93700,491.04953,-2.711249e-004,0.30007,60.00000,5.396445e-006
 329.93700,490.85097,-2.646757e-004,0.29999,60.00000,5.405185e-006
 330.93700,490.65314,-2.586939e-004,0.30003,60.00000,5.410061e-006
 331.93700,490.45605,-2.523926e-004,0.30008,60.00000,5.417213e-006
 332.93700,490.26017,-2.457054e-004,0.30007,60.00000,5.427763e-006
 333.93700,490.06559,-2.395549e-004,0.29997,60.00000,5.433685e-006
 334.93700,489.87194,-2.324098e-004,0.29999,60.00000,5.446971e-006
 335.93700,489.67862,-2.267799e-004,0.30012,60.00000,5.448749e-006
 336.93700,489.48490,-2.197416e-004,0.30001,60.00000,5.461133e-006
 337.93700,489.29085,-2.134520e-004,0.29999,60.00000,5.467434e-006
 338.93700,489.09595,-2.075586e-004,0.30003,60.00000,5.470876e-006
 339.93700,488.89941,-2.014225e-004,0.29997,60.00000,5.475963e-006
 340.93700,488.70138,-1.949019e-004,0.30003,60.00000,5.483914e-006
 341.93700,488.50232,-1.888936e-004,0.30000,60.00000,5.488162e-006
 342.93700,488.30260,-1.827658e-004,0.30001,60.00000,5.492951e-006
 343.93700,488.10286,-1.771204e-004,0.30004,60.00000,5.493856e-006
 344.93700,487.90334,-1.705790e-004,0.30001,60.00000,5.501651e-006
 345.93700,487.70448,-1.641352e-004,0.30001,60.00000,5.508608e-006
 346.93700,487.50702,-1.577162e-004,0.30003,60.00000,5.515293e-006
 347.93700,487.31052,-1.515625e-004,0.30000,60.00000,5.519996e-006
 348.93700,487.11479,-1.458912e-004,0.29998,60.00000,5.520957e-006
 349.93700,486.91989,-1.396037e-004,0.29998,60.00000,5.526388e-006
 350.93700,486.72525,-1.346790e-004,0.29993,60.00000,5.522175e-006
 351.93700,486.53023,-1.279065e-004,0.29997,60.00000,5.531156e-006
 352.93700,486.33417,-1.219713e-004,0.30002,60.00000,5.533838e-006
 353.93700,486.13680,-1.153989e-004,0.30003,60.00000,5.541021e-006
 354.93700,485.93817,-1.099196e-004,0.29994,60.00000,5.540577e-006
 355.93700,485.73844,-1.032327e-004,0.29997,60.00000,5.548503e-006
 356.93700,485.53804,-9.770546e-005,0.30005,60.00000,5.548441e-006
 357.93700,485.33777,-9.163988e-005,0.30005,60.00000,5.551994e-006
 358.93700,485.13804,-8.554810e-005,0.30001,60.00000,5.555519e-006
 359.93700,484.93914,-7.836352e-005,0.30002,60.00000,5.566330e-006
 360.93700,484.74137,-7.253038e-005,0.29999,60.00000,5.568015e-006
 361.93700,484.54464,-6.601786e-005,0.30001,60.00000,5.574117e-006
 362.93700,484.34901,-6.073603e-005,0.29999,60.00000,5.572418e-006
 363.93700,484.15400,-5.429772e-005,0.30002,60.00000,5.577947e-006
 364.93700,483.95904,-4.821131e-005,0.30001,60.00000,5.581433e-006
 365.93700,483.76374,-4.063402e-005,0.30000,60.00000,5.594112e-006
 366.93700,483.56791,-3.403402e-005,0.30004,60.00000,5.600601e-006
 367.93700,483.37159,-2.750027e-005,0.29999,60.00000,5.606484e-006
 368.93700,483.17516,-2.213069e-005,0.30003,60.00000,5.605007e-006
 369.93700,482.97853,-1.573932e-005,0.29993,60.00000,5.609741e-006
 370.93700,482.78239,-9.099637e-006,0.29997,60.00000,5.616446e-006
 371.93700,482.58676,-2.614684e-006,0.30002,60.00000,5.621597e-006
 372.93700,482.39207, 3.688088e-006,0.30002,60.00000,5.625881e-006
 373.93700,482.19795, 1.092058e-005,0.30000,60.00000,5.635627e-006
 374.93700,482.00441, 1.607426e-005,0.30003,60.00000,5.632623e-006
 375.93700,481.81133, 2.306195e-005,0.29995,60.00000,5.640863e-006
 376.93700,481.61805, 2.869458e-005,0.29998,60.00000,5.640878e-006
 377.93700,481.42471, 3.555041e-005,0.30000,60.00000,5.648009e-006
 378.93700,481.23136, 4.183959e-005,0.29998,60.00000,5.651758e-006
 379.93700,481.03719, 4.834312e-005,0.30004,60.00000,5.656693e-006
 380.93700,480.84207, 5.463357e-005,0.29995,60.00000,5.660412e-006
 381.93700,480.64634, 6.045484e-005,0.29999,60.00000,5.661600e-006
 382.93700,480.45018, 6.756352e-005,0.30001,60.00000,5.669910e-006
 383.93700,480.25349, 7.419988e-005,0.30002,60.00000,5.675496e-006
 384.93700,480.05691, 8.082204e-005,0.30008,60.00000,5.680948e-006
 385.93700,479.86134, 8.771675e-005,0.30007,60.00000,5.687662e-006
 386.93700,479.66687, 9.467643e-005,0.29997,60.00000,5.694906e-006
 387.93700,479.47323, 1.015374e-004,0.30000,60.00000,5.701492e-006
 388.93700,479.28033, 1.079229e-004,0.29996,60.00000,5.705443e-006
 389.93700,479.08783, 1.150589e-004,0.30001,60.00000,5.713233e-006
 390.93700,478.89525, 1.217842e-004,0.30000,60.00000,5.718870e-006
 391.93700,478.70206, 1.284567e-004,0.29999,60.00000,5.723964e-006
 392.93700,478.50801, 1.345601e-004,0.29998,60.00000,5.726093e-006
 393.93700,478.31293, 1.407466e-004,0.29999,60.00000,5.728610e-006
 394.93700,478.11681, 1.469006e-004,0.30003,60.00000,5.731002e-006
 395.93700,477.91978, 1.536029e-004,0.30003,60.00000,5.736082e-006
 396.93700,477.72215, 1.597820e-004,0.29999,60.00000,5.738614e-006
 397.93700,477.52452, 1.662942e-004,0.29998,60.00000,5.742672e-006
 398.93700,477.32783, 1.726168e-004,0.30002,60.00000,5.745718e-006
 399.93700,477.13165, 1.795137e-004,0.29999,60.00000,5.751718e-006
 400.93700,476.93647, 1.859466e-004,0.30000,60.00000,5.755453e-006
 401.93700,476.74216, 1.931535e-004,0.30001,60.00000,5.762835e-006
 402.93700,476.54793, 1.988200e-004,0.30002,60.00000,5.762416e-006
 403.93700,476.35344, 2.048347e-004,0.29999,60.00000,5.763775e-006
 404.93700,476.15847, 2.119337e-004,0.30001,60.00000,5.770515e-006
 405.93700,475.96272, 2.179416e-004,0.29999,60.00000,5.771769e-006
 406.93700,475.76602, 2.247502e-004,0.29998,60.00000,5.776929e-006
 407.93700,475.56831, 2.317333e-004,0.29996,60.00000,5.783093e-006
 408.93700,475.36969, 2.377747e-004,0.30001,60.00000,5.784310e-006
 409.93700,475.17071, 2.445089e-004,0.30002,60.00000,5.789165e-006
 410.93700,474.97188, 2.515319e-004,0.29998,60.00000,5.795332e-006
 411.93700,474.77403, 2.582796e-004,0.30002,60.00000,5.800063e-006
 412.93700,474.57726, 2.650310e-004,0.30006,60.00000,5.804730e-006
 413.93700,474.38160, 2.721248e-004,0.30001,60.00000,5.811055e-006
 414.93700,474.18652, 2.783786e-004,0.30001,60.00000,5.813296e-006
 415.93700,473.99180, 2.842076e-004,0.30005,60.00000,5.813199e-006
 416.93700,473.79760, 2.912100e-004,0.30000,60.00000,5.818874e-006
 417.93700,473.60286, 2.972081e-004,0.29997,60.00000,5.819909e-006
 418.93700,473.40704, 3.034472e-004,0.29998,60.00000,5.821864e-006
 419.93700,473.21033, 3.087520e-004,0.30001,60.00000,5.819435e-006
 420.93700,473.01239, 3.158445e-004,0.29999,60.00000,5.825516e-006
 421.93700,472.81344, 3.221364e-004,0.30002,60.00000,5.827713e-006
 422.93700,472.61367, 3.286604e-004,0.30001,60.00000,5.830785e-006
 423.93700,472.41402, 3.339868e-004,0.30002,60.00000,5.828574e-006
 424.93700,472.21463, 3.386456e-004,0.29995,60.00000,5.823079e-006
 425.93700,472.01588, 3.451064e-004,0.30000,60.00000,5.826201e-006
 426.93700,471.81845, 3.520854e-004,0.30002,60.00000,5.831365e-006
 427.93700,471.62190, 3.589653e-004,0.29994,60.00000,5.836223e-006
 428.93700,471.42587, 3.655768e-004,0.30001,60.00000,5.839845e-006
 429.93700,471.23024, 3.723280e-004,0.29999,60.00000,5.843889e-006
 430.93700,471.03480, 3.792327e-004,0.29997,60.00000,5.848618e-006
 431.93700,470.83931, 3.851796e-004,0.29999,60.00000,5.849184e-006
 432.93700,470.64304, 3.922642e-004,0.30000,60.00000,5.854627e-006
 433.93700,470.44576, 3.982524e-004,0.30001,60.00000,5.855264e-006
 434.93700,470.24756, 4.053518e-004,0.29999,60.00000,5.860804e-006
 435.93700,470.04876, 4.123251e-004,0.30002,60.00000,5.865766e-006
 436.93700,469.84940, 4.197174e-004,0.30002,60.00000,5.872371e-006
 437.93700,469.64966, 4.270995e-004,0.29992,60.00000,5.879028e-006
 438.93700,469.45042, 4.345324e-004,0.30000,60.00000,5.885991e-006
 439.93700,469.25192, 4.413241e-004,0.30002,60.00000,5.889958e-006
 440.93700,469.05407, 4.464562e-004,0.30002,60.00000,5.886555e-006
 441.93700,468.85733, 4.540956e-004,0.29998,60.00000,5.894028e-006
 442.93700,468.66094, 4.608073e-004,0.29998,60.00000,5.897620e-006
 443.93700,468.46489, 4.681273e-004,0.30000,60.00000,5.903711e-006
 444.93700,468.26949, 4.755769e-004,0.30004,60.00000,5.910201e-006
 445.93700,468.07413, 4.825966e-004,0.29993,60.00000,5.914938e-006
 446.93700,467.87894, 4.894806e-004,0.29997,60.00000,5.919091e-006
 447.93700,467.68383, 4.960257e-004,0.29999,60.00000,5.921760e-006
 448.93700,467.48816, 5.024728e-004,0.29997,60.00000,5.923927e-006
 449.93700,467.29247, 5.091019e-004,0.29998,60.00000,5.926810e-006
 450.93700,467.09655, 5.160616e-004,0.30002,60.00000,5.930980e-006
 451.93700,466.90026, 5.224204e-004,0.30000,60.00000,5.932948e-006
 452.93700,466.70412, 5.293162e-004,0.30002,60.00000,5.936924e-006
 453.93700,466.50785, 5.358438e-004,0.30003,60.00000,5.939158e-006
 454.93700,466.31187, 5.426532e-004,0.29998,60.00000,5.942785e-006
 455.93700,466.11664, 5.488092e-004,0.29999,60.00000,5.943711e-006
 456.93700,465.92219, 5.549883e-004,0.29999,60.00000,5.944672e-006
 457.93700,465.72790, 5.615076e-004,0.29999,60.00000,5.946899e-006
 458.93700,465.53371, 5.685007e-004,0.30001,60.00000,5.951170e-006
 459.93700,465.33960, 5.747783e-004,0.29998,60.00000,5.952463e-006
 460.93700,465.14518, 5.813783e-004,0.29999,60.00000,5.955081e-006
 461.93700,464.95049, 5.878535e-004,0.30002,60.00000,5.957166e-006
 462.93700,464.75566, 5.937200e-004,0.29999,60.00000,5.956707e-006
 463.93700,464.56021, 6.008474e-004,0.30003,60.00000,5.961385e-006
 464.93700,464.36378, 6.069950e-004,0.30000,60.00000,5.962083e-006
 465.93700,464.16697, 6.130621e-004,0.29996,60.00000,5.962486e-006
 466.93700,463.97003, 6.200014e-004,0.30001,60.00000,5.966247e-006
 467.93700,463.77309, 6.268861e-004,0.30005,60.00000,5.970043e-006
 468.93700,463.57634, 6.339583e-004,0.30003,60.00000,5.974179e-006
 469.93700,463.37971, 6.416103e-004,0.29998,60.00000,5.980549e-006
 470.93700,463.18301, 6.485636e-004,0.29990,60.00000,5.984294e-006
 471.93700,462.98631, 6.557614e-004,0.29999,60.00000,5.988963e-006
 472.93700,462.78989, 6.637285e-004,0.30002,60.00000,5.996493e-006
 473.93700,462.59378, 6.714935e-004,0.29999,60.00000,6.003130e-006
 474.93700,462.39777, 6.789769e-004,0.30002,60.00000,6.008765e-006
 475.93700,462.20172, 6.860030e-004,0.29998,60.00000,6.012569e-006
 476.93700,462.00546, 6.940237e-004,0.29999,60.00000,6.020149e-006
 477.93700,461.80896, 7.013308e-004,0.29998,60.00000,6.024855e-006
 478.93700,461.61243, 7.086094e-004,0.29999,60.00000,6.029486e-006
 479.93700,461.41558, 7.160776e-004,0.29998,60.00000,6.034945e-006
 480.93700,461.21782, 7.234682e-004,0.29997,60.00000,6.039923e-006
 481.93700,461.02003, 7.309400e-004,0.30003,60.00000,6.045129e-006
 482.93700,460.82235, 7.381387e-004,0.30001,60.00000,6.049393e-006
 483.93700,460.62477, 7.457423e-004,0.29997,60.00000,6.055045e-006
 484.93700,460.42748, 7.527916e-004,0.30003,60.00000,6.058704e-006
 485.93700,460.23010, 7.597583e-004,0.29999,60.00000,6.061928e-006
 486.93700,460.03294, 7.668782e-004,0.29998,60.00000,6.065821e-006
 487.93700,459.83559, 7.738867e-004,0.30001,60.00000,6.069155e-006
 488.93700,459.63779, 7.798879e-004,0.29998,60.00000,6.068864e-006
 489.93700,459.43982, 7.863486e-004,0.29996,60.00000,6.070418e-006
 490.93700,459.24193, 7.934660e-004,0.30003,60.00000,6.074109e-006
 491.93700,459.04394, 8.003502e-004,0.30002,60.00000,6.077027e-006
 492.93700,458.84561, 8.074334e-004,0.30001,60.00000,6.080527e-006
 493.93700,458.64719, 8.144555e-004,0.30001,60.00000,6.083789e-006
 494.93700,458.44846, 8.217418e-004,0.29996,60.00000,6.087953e-006
 495.93700,458.24952, 8.288231e-004,0.30000,60.00000,6.091564e-006
 496.93700,458.05067, 8.357206e-004,0.29998,60.00000,6.094261e-006
 497.93700,457.85210, 8.432050e-004,0.29999,60.00000,6.099136e-006
 498.93700,457.65342, 8.505333e-004,0.29999,60.00000,6.103357e-006
 499.93700,457.45510, 8.569856e-004,0.30001,60.00000,6.104629e-006
 500.93700,457.25714, 8.641318e-004,0.30000,60.00000,6.108278e-006
 501.93700,457.05889, 8.710767e-004,0.29999,60.00000,6.111037e-006
 502.93700,456.86063, 8.781563e-004,0.30004,60.00000,6.114321e-006
 503.93700,456.66208, 8.859280e-004,0.30001,60.00000,6.119924e-006
 504.93700,456.46300, 8.925910e-004,0.30000,60.00000,6.121775e-006
 505.93700,456.26351, 8.987561e-004,0.30000,60.00000,6.121954e-006
 506.93700,456.06375, 9.065652e-004,0.30001,60.00000,6.127699e-006
 507.93700,455.86417, 9.134157e-004,0.30000,60.00000,6.130052e-006
 508.93700,455.66439, 9.208691e-004,0.29997,60.00000,6.134482e-006
 509.93700,455.46445, 9.276471e-004,0.29998,60.00000,6.136771e-006
 510.93700,455.26467, 9.354677e-004,0.29997,60.00000,6.142341e-006
 511.93700,455.06493, 9.430828e-004,0.30001,60.00000,6.147131e-006
 512.93700,454.86527, 9.509053e-004,0.30002,60.00000,6.152676e-006
 513.93700,454.66524, 9.586564e-004,0.30002,60.00000,6.157926e-006
 514.93700,454.46527, 9.660632e-004,0.30001,60.00000,6.162023e-006
 515.93700,454.26540, 9.740735e-004,0.29999,60.00000,6.167972e-006
 516.93700,454.06602, 9.816107e-004,0.29998,60.00000,6.172478e-006
 517.93700,453.86746, 9.887337e-004,0.30002,60.00000,6.175602e-006
 518.93700,453.66974, 9.962280e-004,0.29999,60.00000,6.180027e-006
 519.93700,453.47263, 1.004037e-003,0.29998,60.00000,6.185066e-006
 520.93700,453.27597, 1.011830e-003,0.30002,60.00000,6.190272e-006
 521.93700,453.08003, 1.019236e-003,0.29999,60.00000,6.194227e-006
 522.93700,452.88453, 1.027263e-003,0.30001,60.00000,6.199991e-006
 523.93700,452.68936, 1.034538e-003,0.29998,60.00000,6.203495e-006
 524.93700,452.49422, 1.041889e-003,0.29999,60.00000,6.207072e-006
 525.93700,452.29857, 1.049213e-003,0.29999,60.00000,6.210562e-006
 526.93700,452.10207, 1.056167e-003,0.29999,60.00000,6.212923e-006
 527.93700,451.90462, 1.062729e-003,0.30004,60.00000,6.214203e-006
 528.93700,451.70595, 1.068197e-003,0.30004,60.00000,6.211713e-006
 529.93700,451.50674, 1.075232e-003,0.30003,60.00000,6.214417e-006
 530.93700,451.30753, 1.082318e-003,0.30000,60.00000,6.217009e-006
 531.93700,451.10863, 1.089714e-003,0.29998,60.00000,6.220712e-006
 532.93700,450.91018, 1.097085e-003,0.30000,60.00000,6.224335e-006
 533.93700,450.71264, 1.104460e-003,0.29997,60.00000,6.227942e-006
 534.93700,450.51580, 1.112394e-003,0.29998,60.00000,6.233016e-006
 535.93700,450.31950, 1.119761e-003,0.30002,60.00000,6.236650e-006
 536.93700,450.12340, 1.127744e-003,0.29999,60.00000,6.241961e-006
 537.93700,449.92732, 1.135161e-003,0.29998,60.00000,6.245486e-006
 538.93700,449.73107, 1.142784e-003,0.30000,60.00000,6.249640e-006
 539.93700,449.53424, 1.149955e-003,0.29999,60.00000,6.252436e-006
 540.93700,449.33645, 1.157269e-003,0.29999,60.00000,6.255668e-006
 541.93700,449.13786, 1.164795e-003,0.30000,60.00000,6.259482e-006
 542.93700,448.93845, 1.172754e-003,0.30001,60.00000,6.264663e-006
 543.93700,448.73881, 1.180966e-003,0.29994,60.00000,6.270479e-006
 544.93700,448.53907, 1.189325e-003,0.29998,60.00000,6.276717e-006
 545.93700,448.33890, 1.197892e-003,0.29997,60.00000,6.283462e-006
 546.93700,448.13877, 1.206132e-003,0.30004,60.00000,6.289201e-006
 547.93700,447.93876, 1.214686e-003,0.30001,60.00000,6.295964e-006
 548.93700,447.73873, 1.222718e-003,0.29999,60.00000,6.301237e-006
 549.93700,447.53891, 1.231193e-003,0.30003,60.00000,6.307529e-006
 550.93700,447.33951, 1.239329e-003,0.30002,60.00000,6.312923e-006
 551.93700,447.14023, 1.247243e-003,0.30000,60.00000,6.317576e-006
 552.93700,446.94118, 1.255118e-003,0.30000,60.00000,6.322106e-006
 553.93700,446.74244, 1.262790e-003,0.29998,60.00000,6.326036e-006
 554.93700,446.54341, 1.270168e-003,0.30000,60.00000,6.329083e-006
 555.93700,446.34380, 1.277533e-003,0.30002,60.00000,6.332055e-006
 556.93700,446.14373, 1.285255e-003,0.30005,60.00000,6.336036e-006
 557.93700,445.94341, 1.292456e-003,0.29999,60.00000,6.338476e-006
 558.93700,445.74286, 1.300153e-003,0.29999,60.00000,6.342357e-006
 559.93700,445.54220, 1.307701e-003,0.30003,60.00000,6.345924e-006
 560.93700,445.34176, 1.313805e-003,0.30000,60.00000,6.345246e-006
 561.93700,445.14110, 1.322667e-003,0.29999,60.00000,6.352268e-006
 562.93700,444.94053, 1.329759e-003,0.30001,60.00000,6.354472e-006
 563.93700,444.74048, 1.337048e-003,0.30002,60.00000,6.357188e-006
 564.93700,444.54045, 1.343945e-003,0.29995,60.00000,6.358588e-006
 565.93700,444.33989, 1.351338e-003,0.30000,60.00000,6.361556e-006
 566.93700,444.13939, 1.358279e-003,0.29997,60.00000,6.363134e-006
 567.93700,443.93910, 1.366016e-003,0.30000,60.00000,6.367017e-006
 568.93700,443.73828, 1.373421e-003,0.30002,60.00000,6.369839e-006
 569.93700,443.53715, 1.380954e-003,0.29998,60.00000,6.373080e-006
 570.93700,443.33588, 1.388730e-003,0.29999,60.00000,6.376984e-006
 571.93700,443.13437, 1.396632e-003,0.30000,60.00000,6.381241e-006
 572.93700,442.93279, 1.404419e-003,0.30001,60.00000,6.385050e-006
 573.93700,442.73162, 1.412382e-003,0.30000,60.00000,6.389448e-006
 574.93700,442.53035, 1.420448e-003,0.30002,60.00000,6.394014e-006
 575.93700,442.32955, 1.428234e-003,0.29998,60.00000,6.397782e-006
 576.93700,442.12935, 1.436322e-003,0.30001,60.00000,6.402455e-006
 577.93700,441.92882, 1.444247e-003,0.29997,60.00000,6.406563e-006
 578.93700,441.72795, 1.452302e-003,0.30003,60.00000,6.411018e-006
 579.93700,441.52669, 1.460976e-003,0.29999,60.00000,6.417071e-006
 580.93700,441.32433, 1.469385e-003,0.30001,60.00000,6.422479e-006
 581.93700,441.12039, 1.477571e-003,0.30001,60.00000,6.427215e-006
 582.93700,440.91535, 1.485942e-003,0.29998,60.00000,6.432428e-006
 583.93700,440.71002, 1.494427e-003,0.29998,60.00000,6.437912e-006
 584.93700,440.50498, 1.502627e-003,0.30001,60.00000,6.442636e-006
 585.93700,440.30076, 1.511620e-003,0.30000,60.00000,6.449468e-006
 586.93700,440.09743, 1.520343e-003,0.30000,60.00000,6.455477e-006
 587.93700,439.89527, 1.529058e-003,0.30000,60.00000,6.461499e-006
 588.93700,439.69472, 1.536272e-003,0.30001,60.00000,6.463489e-006
 589.93700,439.49536, 1.544244e-003,0.30001,60.00000,6.467412e-006
 590.93700,439.29705, 1.552569e-003,0.30002,60.00000,6.472385e-006
 591.93700,439.09897, 1.560548e-003,0.30002,60.00000,6.476237e-006
 592.93700,438.90037, 1.568919e-003,0.30002,60.00000,6.481091e-006
 593.93700,438.70135, 1.575701e-003,0.29999,60.00000,6.481955e-006
 594.93700,438.50243, 1.583668e-003,0.29997,60.00000,6.485827e-006
 595.93700,438.30362, 1.591368e-003,0.30002,60.00000,6.489027e-006
 596.93700,438.10500, 1.598640e-003,0.29999,60.00000,6.491002e-006
 597.93700,437.90625, 1.606336e-003,0.29998,60.00000,6.494070e-006
 598.93700,437.70705, 1.613845e-003,0.29998,60.00000,6.496706e-006
 599.93700,437.50810, 1.621674e-003,0.30001,60.00000,6.500129e-006
 600.93700,437.30891, 1.629382e-003,0.29999,60.00000,6.503163e-006
 601.93700,437.10898, 1.636827e-003,0.29998,60.00000,6.505583e-006
 602.93700,436.90879, 1.644719e-003,0.30001,60.00000,6.509140e-006
 603.93700,436.70822, 1.651850e-003,0.29999,60.00000,6.510684e-006
 604.93700,436.50725, 1.659958e-003,0.30000,60.00000,6.514753e-006
 605.93700,436.30658, 1.667522e-003,0.30000,60.00000,6.517401e-006
 606.93700,436.10617, 1.675619e-003,0.30001,60.00000,6.521314e-006
 607.93700,435.90572, 1.683608e-003,0.30000,60.00000,6.525101e-006
 608.93700,435.70577, 1.690405e-003,0.29999,60.00000,6.525766e-006
 609.93700,435.50669, 1.698420e-003,0.29998,60.00000,6.529491e-006
 610.93700,435.30794, 1.706026e-003,0.30001,60.00000,6.532163e-006
 611.93700,435.10901, 1.714158e-003,0.29999,60.00000,6.536119e-006
 612.93700,434.90939, 1.721480e-003,0.29998,60.00000,6.538055e-006
 613.93700,434.70868, 1.730055e-003,0.29999,60.00000,6.543128e-006
 614.93700,434.50692, 1.738872e-003,0.30001,60.00000,6.548700e-006
 615.93700,434.30417, 1.747211e-003,0.30002,60.00000,6.553139e-006
 616.93700,434.10060, 1.755813e-003,0.29999,60.00000,6.558179e-006
 617.93700,433.89643, 1.764330e-003,0.30000,60.00000,6.563029e-006
 618.93700,433.69204, 1.773351e-003,0.30000,60.00000,6.569041e-006
 619.93700,433.48780, 1.780615e-003,0.30004,60.00000,6.570723e-006
 620.93700,433.28359, 1.789488e-003,0.30001,60.00000,6.576327e-006
 621.93700,433.07937, 1.798459e-003,0.30002,60.00000,6.582137e-006
 622.93700,432.87507, 1.807603e-003,0.30000,60.00000,6.588339e-006
 623.93700,432.67129, 1.816567e-003,0.30001,60.00000,6.594051e-006
 624.93700,432.46802, 1.825716e-003,0.30000,60.00000,6.600304e-006
 625.93700,432.26530, 1.834587e-003,0.30002,60.00000,6.605720e-006
 626.93700,432.06366, 1.843040e-003,0.30001,60.00000,6.610117e-006
 627.93700,431.86242, 1.850440e-003,0.30001,60.00000,6.612034e-006
 628.93700,431.66134, 1.858508e-003,0.29999,60.00000,6.615547e-006
 629.93700,431.46031, 1.866931e-003,0.29998,60.00000,6.619807e-006
 630.93700,431.25859, 1.875568e-003,0.29999,60.00000,6.624570e-006
 631.93700,431.05581, 1.884053e-003,0.30000,60.00000,6.628964e-006
 632.93700,430.85183, 1.892306e-003,0.29997,60.00000,6.632829e-006
 633.93700,430.64760, 1.901031e-003,0.29999,60.00000,6.637722e-006
 634.93700,430.44426, 1.909532e-003,0.30000,60.00000,6.642108e-006
 635.93700,430.24238, 1.916834e-003,0.30002,60.00000,6.643759e-006
 636.93700,430.04200, 1.924966e-003,0.29998,60.00000,6.647233e-006
 637.93700,429.84261, 1.933503e-003,0.30001,60.00000,6.651655e-006
 638.93700,429.64362, 1.941645e-003,0.30000,60.00000,6.655126e-006
 639.93700,429.44435, 1.950106e-003,0.30000,60.00000,6.659285e-006
 640.93700,429.24434, 1.958930e-003,0.30001,60.00000,6.664298e-006
 641.93700,429.04352, 1.966932e-003,0.29999,60.00000,6.667402e-006
 642.93700,428.84150, 1.975030e-003,0.29999,60.00000,6.670666e-006
 643.93700,428.63820, 1.983707e-003,0.30000,60.00000,6.675255e-006
 644.93700,428.43409, 1.991827e-003,0.30001,60.00000,6.678619e-006
 645.93700,428.22906, 1.999878e-003,0.30004,60.00000,6.681823e-006
 646.93700,428.02302, 2.008517e-003,0.29994,60.00000,6.686234e-006
 647.93700,427.81690, 2.017784e-003,0.29999,60.00000,6.692221e-006
 648.93700,427.61170, 2.027352e-003,0.29997,60.00000,6.698710e-006
 649.93700,427.40811, 2.036336e-003,0.29999,60.00000,6.703983e-006
 650.93700,427.20661, 2.046020e-003,0.30002,60.00000,6.710638e-006
 651.93700,427.00662, 2.055356e-003,0.29998,60.00000,6.716674e-006
 652.93700,426.80736, 2.064664e-003,0.30003,60.00000,6.722474e-006
 653.93700,426.60914, 2.072696e-003,0.30000,60.00000,6.725363e-006
 654.93700,426.41119, 2.081824e-003,0.29999,60.00000,6.730860e-006
 655.93700,426.21274, 2.090723e-003,0.29998,60.00000,6.735655e-006
 656.93700,426.01384, 2.099485e-003,0.30000,60.00000,6.740175e-006
 657.93700,425.81403, 2.108618e-003,0.29998,60.00000,6.745540e-006
 658.93700,425.61381, 2.117396e-003,0.29998,60.00000,6.750101e-006
 659.93700,425.41364, 2.125858e-003,0.30001,60.00000,6.753846e-006
 660.93700,425.21358, 2.134652e-003,0.30001,60.00000,6.758364e-006
 661.93700,425.01407, 2.143676e-003,0.30001,60.00000,6.763435e-006
 662.93700,424.81511, 2.152380e-003,0.29998,60.00000,6.767723e-006
 663.93700,424.61744, 2.161144e-003,0.30004,60.00000,6.772140e-006
 664.93700,424.42122, 2.170019e-003,0.30000,60.00000,6.776743e-006
 665.93700,424.22573, 2.177194e-003,0.29997,60.00000,6.777614e-006
 666.93700,424.03058, 2.185954e-003,0.30000,60.00000,6.781902e-006
 667.93700,423.83527, 2.194418e-003,0.30000,60.00000,6.785550e-006
 668.93700,423.63953, 2.203236e-003,0.29998,60.00000,6.790028e-006
 669.93700,423.44294, 2.211684e-003,0.30003,60.00000,6.793652e-006
 670.93700,423.24486, 2.220355e-003,0.30000,60.00000,6.797753e-006
 671.93700,423.04536, 2.229100e-003,0.30001,60.00000,6.801947e-006
 672.93700,422.84508, 2.238397e-003,0.29999,60.00000,6.807341e-006
 673.93700,422.64421, 2.247030e-003,0.29999,60.00000,6.811259e-006
 674.93700,422.44359, 2.256261e-003,0.30001,60.00000,6.816456e-006
 675.93700,422.24400, 2.265087e-003,0.29999,60.00000,6.820816e-006
 676.93700,422.04516, 2.273205e-003,0.30001,60.00000,6.823591e-006
 677.93700,421.84564, 2.282503e-003,0.29999,60.00000,6.828828e-006
 678.93700,421.64510, 2.291515e-003,0.29998,60.00000,6.833484e-006
 679.93700,421.44338, 2.301271e-003,0.30002,60.00000,6.839640e-006
 680.93700,421.24051, 2.310260e-003,0.29998,60.00000,6.844307e-006
 681.93700,421.03761, 2.319631e-003,0.29997,60.00000,6.849641e-006
 682.93700,420.83506, 2.329202e-003,0.30000,60.00000,6.855376e-006
 683.93700,420.63275, 2.338880e-003,0.29999,60.00000,6.861380e-006
 684.93700,420.43114, 2.348681e-003,0.30001,60.00000,6.867507e-006
 685.93700,420.23050, 2.357306e-003,0.30002,60.00000,6.871167e-006
 686.93700,420.03031, 2.366583e-003,0.30000,60.00000,6.876286e-006
 687.93700,419.83039, 2.375764e-003,0.30000,60.00000,6.881082e-006
 688.93700,419.63024, 2.384897e-003,0.29998,60.00000,6.885809e-006
 689.93700,419.42939, 2.394344e-003,0.29998,60.00000,6.891109e-006
 690.93700,419.22747, 2.403518e-003,0.30001,60.00000,6.895870e-006
 691.93700,419.02439, 2.412681e-003,0.29997,60.00000,6.900623e-006
 692.93700,418.82123, 2.422102e-003,0.30001,60.00000,6.905793e-006
 693.93700,418.61819, 2.430422e-003,0.30000,60.00000,6.908675e-006
 694.93700,418.41572, 2.439910e-003,0.30000,60.00000,6.914126e-006
 695.93700,418.21421, 2.449064e-003,0.30002,60.00000,6.918684e-006
 696.93700,418.01359, 2.458142e-003,0.30001,60.00000,6.923071e-006
 697.93700,417.81382, 2.466501e-003,0.30001,60.00000,6.926043e-006
 698.93700,417.61469, 2.475686e-003,0.29998,60.00000,6.930678e-006
 699.93700,417.41633, 2.484785e-003,0.30001,60.00000,6.935061e-006
 700.93700,417.21827, 2.494176e-003,0.30000,60.00000,6.939986e-006
 701.93700,417.01965, 2.503102e-003,0.30001,60.00000,6.944090e-006
 702.93700,416.82015, 2.512097e-003,0.29997,60.00000,6.948298e-006
 703.93700,416.61959, 2.520543e-003,0.30001,60.00000,6.951346e-006
 704.93700,416.41796, 2.529450e-003,0.29999,60.00000,6.955187e-006
 705.93700,416.21524, 2.538389e-003,0.30002,60.00000,6.959242e-006
 706.93700,416.01159, 2.546848e-003,0.29999,60.00000,6.962276e-006
 707.93700,415.80749, 2.555669e-003,0.29999,60.00000,6.965995e-006
 708.93700,415.60319, 2.565489e-003,0.29999,60.00000,6.971726e-006
 709.93700,415.39924, 2.574902e-003,0.29998,60.00000,6.976595e-006
 710.93700,415.19595, 2.584601e-003,0.30002,60.00000,6.982010e-006
 711.93700,414.99352, 2.594325e-003,0.29999,60.00000,6.987458e-006
 712.93700,414.79221, 2.604081e-003,0.30002,60.00000,6.993049e-006
 713.93700,414.59190, 2.613830e-003,0.29996,60.00000,6.998481e-006
 714.93700,414.39228, 2.623694e-003,0.30001,60.00000,7.004139e-006
 715.93700,414.19322, 2.633310e-003,0.29999,60.00000,7.009356e-006
 716.93700,413.99421, 2.642290e-003,0.29997,60.00000,7.013204e-006
 717.93700,413.79524, 2.648896e-003,0.30003,60.00000,7.012349e-006
 718.93700,413.59604, 2.658329e-003,0.30003,60.00000,7.017146e-006
 719.93700,413.39614, 2.667877e-003,0.29999,60.00000,7.022115e-006
 720.93700,413.19607, 2.677571e-003,0.29997,60.00000,7.027328e-006
 721.93700,412.99678, 2.686945e-003,0.29999,60.00000,7.031985e-006
 722.93700,412.79805, 2.696849e-003,0.29999,60.00000,7.037501e-006
 723.93700,412.59938, 2.706858e-003,0.29999,60.00000,7.043268e-006
 724.93700,412.40121, 2.716293e-003,0.29999,60.00000,7.047996e-006
 725.93700,412.20318, 2.725678e-003,0.29999,60.00000,7.052484e-006
 726.93700,412.00484, 2.734744e-003,0.30000,60.00000,7.056408e-006
 727.93700,411.80635, 2.744220e-003,0.30001,60.00000,7.061104e-006
 728.93700,411.60762, 2.753153e-003,0.30001,60.00000,7.064653e-006
 729.93700,411.40826, 2.762478e-003,0.29999,60.00000,7.069013e-006
 730.93700,411.20867, 2.770527e-003,0.29999,60.00000,7.070911e-006
 731.93700,411.00892, 2.780551e-003,0.30001,60.00000,7.076507e-006
 732.93700,410.80882, 2.789832e-003,0.29998,60.00000,7.080743e-006
 733.93700,410.60902, 2.799527e-003,0.30000,60.00000,7.085759e-006
 734.93700,410.40966, 2.808836e-003,0.30001,60.00000,7.090012e-006
 735.93700,410.21032, 2.818347e-003,0.30001,60.00000,7.094605e-006
 736.93700,410.01135, 2.827588e-003,0.30000,60.00000,7.098601e-006
 737.93700,409.81268, 2.836904e-003,0.29999,60.00000,7.102855e-006
 738.93700,409.61380, 2.846976e-003,0.30001,60.00000,7.108443e-006
 739.93700,409.41477, 2.856503e-003,0.29998,60.00000,7.113033e-006
 740.93700,409.21504, 2.864550e-003,0.29998,60.00000,7.114830e-006
 741.93700,409.01420, 2.874129e-003,0.29999,60.00000,7.119436e-006
 742.93700,408.81235, 2.883501e-003,0.30000,60.00000,7.123653e-006
 743.93700,408.60993, 2.892893e-003,0.29996,60.00000,7.127937e-006
 744.93700,408.40764, 2.902628e-003,0.30002,60.00000,7.132780e-006
 745.93700,408.20601, 2.912176e-003,0.29998,60.00000,7.137322e-006
 746.93700,408.00491, 2.921667e-003,0.30003,60.00000,7.141653e-006
 747.93700,407.80448, 2.930808e-003,0.29998,60.00000,7.145397e-006
 748.93700,407.60498, 2.940625e-003,0.29997,60.00000,7.150380e-006
 749.93700,407.40632, 2.949681e-003,0.29999,60.00000,7.153869e-006
 750.93700,407.20775, 2.959227e-003,0.29998,60.00000,7.158337e-006
 751.93700,407.00867, 2.968644e-003,0.30002,60.00000,7.162500e-006
 752.93700,406.80915, 2.978022e-003,0.30000,60.00000,7.166536e-006
 753.93700,406.60859, 2.987627e-003,0.30001,60.00000,7.171087e-006
 754.93700,406.40646, 2.997437e-003,0.29999,60.00000,7.175845e-006
 755.93700,406.20231, 3.007111e-003,0.30002,60.00000,7.180457e-006
 756.93700,405.99688, 3.017149e-003,0.30001,60.00000,7.185693e-006
 757.93700,405.79236, 3.027217e-003,0.30001,60.00000,7.190925e-006
 758.93700,405.58950, 3.037267e-003,0.29999,60.00000,7.196123e-006
 759.93700,405.38779, 3.046930e-003,0.30002,60.00000,7.200669e-006
 760.93700,405.18635, 3.056577e-003,0.30001,60.00000,7.205060e-006
 761.93700,404.98479, 3.066325e-003,0.30000,60.00000,7.209684e-006
 762.93700,404.78288, 3.075963e-003,0.29998,60.00000,7.214082e-006
 763.93700,404.58041, 3.085493e-003,0.30000,60.00000,7.218220e-006
 764.93700,404.37754, 3.095131e-003,0.30000,60.00000,7.222644e-006
 765.93700,404.17464, 3.105656e-003,0.30000,60.00000,7.228534e-006
 766.93700,403.97164, 3.115881e-003,0.30000,60.00000,7.233881e-006
 767.93700,403.76872, 3.125920e-003,0.29998,60.00000,7.238931e-006
 768.93700,403.56574, 3.135899e-003,0.29998,60.00000,7.243857e-006
 769.93700,403.36237, 3.145773e-003,0.30001,60.00000,7.248570e-006
 770.93700,403.15910, 3.156071e-003,0.29999,60.00000,7.254001e-006
 771.93700,402.95644, 3.165831e-003,0.30002,60.00000,7.258441e-006
 772.93700,402.75458, 3.175909e-003,0.30001,60.00000,7.263440e-006
 773.93700,402.55346, 3.185976e-003,0.29998,60.00000,7.268459e-006
 774.93700,402.35272, 3.194721e-003,0.29997,60.00000,7.271032e-006
 775.93700,402.15209, 3.204644e-003,0.30000,60.00000,7.275723e-006
 776.93700,401.95172, 3.214946e-003,0.30002,60.00000,7.281086e-006
 777.93700,401.75222, 3.224586e-003,0.30000,60.00000,7.285219e-006
 778.93700,401.55321, 3.234383e-003,0.29997,60.00000,7.289666e-006
 779.93700,401.35422, 3.244072e-003,0.29998,60.00000,7.293874e-006
 780.93700,401.15493, 3.253891e-003,0.30001,60.00000,7.298268e-006
 781.93700,400.95496, 3.263599e-003,0.30001,60.00000,7.302469e-006
 782.93700,400.75479, 3.273275e-003,0.29999,60.00000,7.306630e-006
 783.93700,400.55476, 3.283088e-003,0.30000,60.00000,7.311028e-006
 784.93700,400.35512, 3.293285e-003,0.30001,60.00000,7.316009e-006
 785.93700,400.15603, 3.303070e-003,0.29998,60.00000,7.320315e-006
 786.93700,399.95756, 3.313058e-003,0.30000,60.00000,7.324922e-006
 787.93700,399.75997, 3.322731e-003,0.30000,60.00000,7.329016e-006
 788.93700,399.56238, 3.332293e-003,0.29999,60.00000,7.332841e-006
 789.93700,399.36343, 3.341765e-003,0.30002,60.00000,7.336514e-006
 790.93700,399.16351, 3.351537e-003,0.29999,60.00000,7.340737e-006
 791.93700,398.96257, 3.361978e-003,0.30001,60.00000,7.346061e-006
 792.93700,398.76045, 3.371919e-003,0.29999,60.00000,7.350536e-006
 793.93700,398.55878, 3.382492e-003,0.29999,60.00000,7.356027e-006
 794.93700,398.35817, 3.392761e-003,0.29999,60.00000,7.360990e-006
 795.93700,398.15833, 3.403255e-003,0.29999,60.00000,7.366338e-006
 796.93700,397.95844, 3.412745e-003,0.30002,60.00000,7.369971e-006
 797.93700,397.75796, 3.422878e-003,0.30002,60.00000,7.374656e-006
 798.93700,397.55664, 3.432776e-003,0.29998,60.00000,7.378913e-006
 799.93700,397.35440, 3.442270e-003,0.29998,60.00000,7.382553e-006
 800.93700,397.15188, 3.451992e-003,0.29997,60.00000,7.386525e-006
 801.93700,396.94946, 3.461616e-003,0.29999,60.00000,7.390300e-006
 802.93700,396.74731, 3.471093e-003,0.29999,60.00000,7.393818e-006
 803.93700,396.54527, 3.480210e-003,0.29998,60.00000,7.396703e-006
 804.93700,396.34327, 3.487750e-003,0.29999,60.00000,7.396937e-006
 805.93700,396.14189, 3.497512e-003,0.29998,60.00000,7.400920e-006
 806.93700,395.94099, 3.507193e-003,0.29995,60.00000,7.404707e-006
 807.93700,395.74013, 3.516523e-003,0.29999,60.00000,7.407975e-006
 808.93700,395.53934, 3.525598e-003,0.29999,60.00000,7.410689e-006
 809.93700,395.33877, 3.535567e-003,0.29998,60.00000,7.415017e-006
 810.93700,395.13843, 3.545514e-003,0.30001,60.00000,7.419214e-006
 811.93700,394.93839, 3.555368e-003,0.30000,60.00000,7.423257e-006
 812.93700,394.73845, 3.564877e-003,0.29999,60.00000,7.426725e-006
 813.93700,394.53806, 3.574286e-003,0.29998,60.00000,7.429993e-006
 814.93700,394.33708, 3.583641e-003,0.30001,60.00000,7.433232e-006
 815.93700,394.13554, 3.593401e-003,0.29998,60.00000,7.436983e-006
 816.93700,393.93330, 3.603232e-003,0.29999,60.00000,7.440925e-006
 817.93700,393.73095, 3.612768e-003,0.29999,60.00000,7.444423e-006
 818.93700,393.52898, 3.623152e-003,0.30001,60.00000,7.449198e-006
 819.93700,393.32781, 3.632903e-003,0.29999,60.00000,7.453003e-006
 820.93700,393.12729, 3.643487e-003,0.30000,60.00000,7.458126e-006
 821.93700,392.92629, 3.653953e-003,0.30000,60.00000,7.463049e-006
 822.93700,392.72479, 3.664414e-003,0.30003,60.00000,7.467959e-006
 823.93700,392.52318, 3.675113e-003,0.30004,60.00000,7.473193e-006
 824.93700,392.32120, 3.685699e-003,0.30001,60.00000,7.478236e-006
 825.93700,392.11877, 3.696268e-003,0.29999,60.00000,7.483245e-006
 826.93700,391.91637, 3.706759e-003,0.30002,60.00000,7.488144e-006
 827.93700,391.71374, 3.716806e-003,0.30003,60.00000,7.492275e-006
 828.93700,391.51082, 3.726500e-003,0.30001,60.00000,7.495883e-006
 829.93700,391.30882, 3.736837e-003,0.30001,60.00000,7.500458e-006
 830.93700,391.10792, 3.747008e-003,0.30000,60.00000,7.504740e-006
 831.93700,390.90700, 3.757058e-003,0.29997,60.00000,7.508826e-006
 832.93700,390.70513, 3.767062e-003,0.30001,60.00000,7.512844e-006
 833.93700,390.50238, 3.777237e-003,0.30001,60.00000,7.517098e-006
 834.93700,390.29917, 3.786839e-003,0.29999,60.00000,7.520473e-006
 835.93700,390.09600, 3.796905e-003,0.29998,60.00000,7.524548e-006
 836.93700,389.89297, 3.806782e-003,0.29998,60.00000,7.528227e-006
 837.93700,389.69030, 3.817348e-003,0.30000,60.00000,7.533052e-006
 838.93700,389.48864, 3.827386e-003,0.30000,60.00000,7.537076e-006
 839.93700,389.28771, 3.837534e-003,0.30001,60.00000,7.541206e-006
 840.93700,389.08734, 3.847555e-003,0.29998,60.00000,7.545171e-006
 841.93700,388.88753, 3.857664e-003,0.29997,60.00000,7.549168e-006
 842.93700,388.68732, 3.867615e-003,0.29998,60.00000,7.553004e-006
 843.93700,388.48712, 3.877772e-003,0.29996,60.00000,7.557167e-006
 844.93700,388.28741, 3.887872e-003,0.30003,60.00000,7.561112e-006
 845.93700,388.08738, 3.898050e-003,0.30000,60.00000,7.565233e-006
 846.93700,387.88695, 3.908677e-003,0.29999,60.00000,7.570075e-006
 847.93700,387.68711, 3.919049e-003,0.30000,60.00000,7.574426e-006
 848.93700,387.48853, 3.929312e-003,0.30000,60.00000,7.578642e-006
 849.93700,387.29044, 3.939710e-003,0.30002,60.00000,7.583067e-006
 850.93700,387.09285, 3.949694e-003,0.30001,60.00000,7.586849e-006
 851.93700,386.89560, 3.959361e-003,0.30000,60.00000,7.590040e-006
 852.93700,386.69816, 3.969382e-003,0.29998,60.00000,7.593766e-006
 853.93700,386.50078, 3.978486e-003,0.29999,60.00000,7.596178e-006
 854.93700,386.30340, 3.988828e-003,0.29998,60.00000,7.600368e-006
 855.93700,386.10513, 3.998838e-003,0.30000,60.00000,7.604133e-006
 856.93700,385.90566, 4.008663e-003,0.29999,60.00000,7.607581e-006
 857.93700,385.70540, 4.015578e-003,0.30000,60.00000,7.606491e-006
 858.93700,385.50441, 4.025742e-003,0.30002,60.00000,7.610462e-006
 859.93700,385.30220, 4.035841e-003,0.29999,60.00000,7.614289e-006
 860.93700,385.09878, 4.046263e-003,0.30002,60.00000,7.618512e-006
 861.93700,384.89465, 4.056672e-003,0.29998,60.00000,7.622858e-006
 862.93700,384.69055, 4.066729e-003,0.30001,60.00000,7.626600e-006
 863.93700,384.48736, 4.075913e-003,0.30000,60.00000,7.628975e-006
 864.93700,384.28502, 4.086270e-003,0.29998,60.00000,7.633185e-006
 865.93700,384.08336, 4.096131e-003,0.30002,60.00000,7.636516e-006
 866.93700,383.88180, 4.106426e-003,0.30000,60.00000,7.640560e-006
 867.93700,383.68002, 4.116615e-003,0.30001,60.00000,7.644494e-006
 868.93700,383.47826, 4.126948e-003,0.29997,60.00000,7.648559e-006
 869.93700,383.27648, 4.137119e-003,0.29995,60.00000,7.652350e-006
 870.93700,383.07450, 4.147165e-003,0.30002,60.00000,7.655971e-006
 871.93700,382.87217, 4.157727e-003,0.29993,60.00000,7.660317e-006
 872.93700,382.67010, 4.168844e-003,0.30000,60.00000,7.665601e-006
 873.93700,382.46884, 4.179982e-003,0.29998,60.00000,7.670773e-006
 874.93700,382.26813, 4.190061e-003,0.29999,60.00000,7.674424e-006
 875.93700,382.06779, 4.200675e-003,0.29997,60.00000,7.678867e-006
 876.93700,381.86723, 4.211515e-003,0.29999,60.00000,7.683586e-006
 877.93700,381.66498, 4.222099e-003,0.29998,60.00000,7.687887e-006
 878.93700,381.46115, 4.232524e-003,0.30003,60.00000,7.692064e-006
 879.93700,381.25774, 4.242287e-003,0.30000,60.00000,7.695158e-006
 880.93700,381.05517, 4.253313e-003,0.30001,60.00000,7.700072e-006
 881.93700,380.85249, 4.261920e-003,0.29999,60.00000,7.701430e-006
 882.93700,380.65013, 4.272951e-003,0.30001,60.00000,7.706428e-006
 883.93700,380.44865, 4.283808e-003,0.30004,60.00000,7.711114e-006
 884.93700,380.24713, 4.294767e-003,0.30000,60.00000,7.715887e-006
 885.93700,380.04526, 4.305269e-003,0.30001,60.00000,7.720030e-006
 886.93700,379.84306, 4.316006e-003,0.29999,60.00000,7.724418e-006
 887.93700,379.63990, 4.326809e-003,0.29996,60.00000,7.729006e-006
 888.93700,379.43674, 4.337274e-003,0.29999,60.00000,7.733019e-006
 889.93700,379.23404, 4.347942e-003,0.29999,60.00000,7.737316e-006
 890.93700,379.03152, 4.358242e-003,0.29999,60.00000,7.741103e-006
 891.93700,378.82970, 4.368562e-003,0.30003,60.00000,7.744900e-006
 892.93700,378.62826, 4.379149e-003,0.30000,60.00000,7.749043e-006
 893.93700,378.42745, 4.389324e-003,0.30000,60.00000,7.752601e-006
 894.93700,378.22741, 4.400132e-003,0.29998,60.00000,7.757085e-006
 895.93700,378.02809, 4.411060e-003,0.30001,60.00000,7.761678e-006
 896.93700,377.83004, 4.422289e-003,0.30000,60.00000,7.766743e-006
 897.93700,377.63303, 4.433665e-003,0.30000,60.00000,7.771937e-006
 898.93700,377.43662, 4.445013e-003,0.29999,60.00000,7.777175e-006
 899.93700,377.24045, 4.455957e-003,0.30002,60.00000,7.781749e-006
 900.93700,377.04415, 4.467393e-003,0.30001,60.00000,7.787027e-006
 901.93700,376.84717, 4.478863e-003,0.30000,60.00000,7.792353e-006
 902.93700,376.64966, 4.490237e-003,0.30000,60.00000,7.797504e-006
 903.93700,376.45160, 4.501042e-003,0.30002,60.00000,7.801839e-006
 904.93700,376.25327, 4.511819e-003,0.29997,60.00000,7.806166e-006
 905.93700,376.05504, 4.522887e-003,0.30000,60.00000,7.810855e-006
 906.93700,375.85717, 4.533677e-003,0.30001,60.00000,7.815168e-006
 907.93700,375.65973, 4.544815e-003,0.29997,60.00000,7.819871e-006
 908.93700,375.46202, 4.555517e-003,0.30000,60.00000,7.823957e-006
 909.93700,375.26405, 4.566381e-003,0.29999,60.00000,7.828336e-006
 910.93700,375.06594, 4.576631e-003,0.30000,60.00000,7.831795e-006
 911.93700,374.86730, 4.587735e-003,0.30000,60.00000,7.836407e-006
 912.93700,374.66780, 4.598379e-003,0.29999,60.00000,7.840427e-006
 913.93700,374.46681, 4.608835e-003,0.30001,60.00000,7.844139e-006
 914.93700,374.26446, 4.619227e-003,0.30000,60.00000,7.847787e-006
 915.93700,374.06096, 4.629832e-003,0.30001,60.00000,7.851664e-006
 916.93700,373.85687, 4.640451e-003,0.30000,60.00000,7.855602e-006
 917.93700,373.65236, 4.651102e-003,0.29999,60.00000,7.859522e-006
 918.93700,373.44657, 4.661416e-003,0.29997,60.00000,7.862995e-006
 919.93700,373.24006, 4.671844e-003,0.30002,60.00000,7.866594e-006
 920.93700,373.03298, 4.682302e-003,0.30000,60.00000,7.870261e-006
 921.93700,372.82516, 4.693932e-003,0.29996,60.00000,7.875529e-006
 922.93700,372.61754, 4.704969e-003,0.29998,60.00000,7.879970e-006
 923.93700,372.41044, 4.716287e-003,0.29998,60.00000,7.884868e-006
 924.93700,372.20393, 4.727105e-003,0.30003,60.00000,7.888943e-006
 925.93700,371.99836, 4.738844e-003,0.30004,60.00000,7.894291e-006
 926.93700,371.79366, 4.750217e-003,0.30000,60.00000,7.899113e-006
 927.93700,371.59053, 4.761528e-003,0.29998,60.00000,7.903933e-006
 928.93700,371.39040, 4.772371e-003,0.30002,60.00000,7.908032e-006
 929.93700,371.19363, 4.783969e-003,0.30000,60.00000,7.913101e-006
 930.93700,370.99883, 4.793526e-003,0.30000,60.00000,7.915348e-006
 931.93700,370.80413, 4.805040e-003,0.30000,60.00000,7.920359e-006
 932.93700,370.60881, 4.816221e-003,0.29999,60.00000,7.924830e-006
 933.93700,370.41255, 4.827574e-003,0.30001,60.00000,7.929574e-006
 934.93700,370.21455, 4.839108e-003,0.30000,60.00000,7.934570e-006
 935.93700,370.01514, 4.850633e-003,0.30002,60.00000,7.939529e-006
 936.93700,369.81487, 4.862017e-003,0.30002,60.00000,7.944264e-006
 937.93700,369.61359, 4.873205e-003,0.29998,60.00000,7.948738e-006
 938.93700,369.41207, 4.884739e-003,0.30000,60.00000,7.953623e-006
 939.93700,369.21011, 4.895935e-003,0.30000,60.00000,7.958109e-006
 940.93700,369.00727, 4.907392e-003,0.30000,60.00000,7.962841e-006
 941.93700,368.80405, 4.918559e-003,0.30000,60.00000,7.967252e-006
 942.93700,368.60041, 4.930273e-003,0.29998,60.00000,7.972326e-006
 943.93700,368.39684, 4.942272e-003,0.29997,60.00000,7.977827e-006
 944.93700,368.19357, 4.954656e-003,0.30002,60.00000,7.983850e-006
 945.93700,367.99095, 4.966314e-003,0.30001,60.00000,7.988853e-006
 946.93700,367.78891, 4.978457e-003,0.30002,60.00000,7.994465e-006
 947.93700,367.58701, 4.990536e-003,0.30002,60.00000,8.000019e-006
 948.93700,367.38495, 5.002546e-003,0.30000,60.00000,8.005409e-006
 949.93700,367.18302, 5.014701e-003,0.29998,60.00000,8.011046e-006
 950.93700,366.98220, 5.026731e-003,0.30002,60.00000,8.016501e-006
 951.93700,366.78229, 5.038846e-003,0.29999,60.00000,8.021954e-006
 952.93700,366.58272, 5.050788e-003,0.29998,60.00000,8.027252e-006
 953.93700,366.38420, 5.062708e-003,0.30000,60.00000,8.032508e-006
 954.93700,366.18730, 5.074776e-003,0.29995,60.00000,8.037879e-006
 955.93700,365.99136, 5.086256e-003,0.30001,60.00000,8.042534e-006
 956.93700,365.79536, 5.097870e-003,0.29997,60.00000,8.047304e-006
 957.93700,365.59925, 5.109314e-003,0.29999,60.00000,8.051815e-006
 958.93700,365.40308, 5.120536e-003,0.29999,60.00000,8.056064e-006
 959.93700,365.20655, 5.131507e-003,0.30000,60.00000,8.059956e-006
 960.93700,365.00905, 5.142338e-003,0.29998,60.00000,8.063632e-006
 961.93700,364.81030, 5.152913e-003,0.29998,60.00000,8.066996e-006
 962.93700,364.61023, 5.164033e-003,0.30003,60.00000,8.071037e-006
 963.93700,364.40959, 5.174989e-003,0.29998,60.00000,8.074882e-006
 964.93700,364.20935, 5.186131e-003,0.29999,60.00000,8.078933e-006
 965.93700,364.00972, 5.198097e-003,0.29998,60.00000,8.084095e-006
 966.93700,363.81098, 5.210111e-003,0.29999,60.00000,8.089287e-006
 967.93700,363.61311, 5.222221e-003,0.29999,60.00000,8.094558e-006
 968.93700,363.41602, 5.234572e-003,0.29999,60.00000,8.100182e-006
 969.93700,363.21969, 5.246385e-003,0.29999,60.00000,8.105073e-006
 970.93700,363.02264, 5.257974e-003,0.30000,60.00000,8.109631e-006
 971.93700,362.82406, 5.269419e-003,0.30000,60.00000,8.114030e-006
 972.93700,362.62434, 5.280818e-003,0.29998,60.00000,8.118331e-006
 973.93700,362.42304, 5.292276e-003,0.29997,60.00000,8.122675e-006
 974.93700,362.21988, 5.303466e-003,0.30001,60.00000,8.126742e-006
 975.93700,362.01530, 5.315083e-003,0.30001,60.00000,8.131236e-006
 976.93700,361.81023, 5.326646e-003,0.29998,60.00000,8.135787e-006
 977.93700,361.60545, 5.338173e-003,0.30003,60.00000,8.140139e-006
 978.93700,361.40116, 5.349953e-003,0.29995,60.00000,8.144885e-006
 979.93700,361.19713, 5.361308e-003,0.30001,60.00000,8.149086e-006
 980.93700,360.99358, 5.372804e-003,0.29999,60.00000,8.153448e-006
 981.93700,360.79040, 5.384495e-003,0.29998,60.00000,8.158017e-006
 982.93700,360.58725, 5.396157e-003,0.30001,60.00000,8.162511e-006
 983.93700,360.38401, 5.408063e-003,0.29998,60.00000,8.167380e-006
 984.93700,360.18070, 5.419940e-003,0.30000,60.00000,8.172153e-006
 985.93700,359.97738, 5.431621e-003,0.29996,60.00000,8.176687e-006
 986.93700,359.77415, 5.443895e-003,0.30000,60.00000,8.181921e-006
 987.93700,359.57125, 5.456801e-003,0.29999,60.00000,8.188005e-006
 988.93700,359.36862, 5.469201e-003,0.30000,60.00000,8.193428e-006
 989.93700,359.16613, 5.482104e-003,0.29999,60.00000,8.199471e-006
 990.93700,358.96424, 5.494774e-003,0.29997,60.00000,8.205226e-006
 991.93700,358.76304, 5.507226e-003,0.29998,60.00000,8.210659e-006
 992.93700,358.56195, 5.519641e-003,0.29998,60.00000,8.215982e-006
 993.93700,358.36068, 5.531733e-003,0.30002,60.00000,8.220955e-006
 994.93700,358.15918, 5.544323e-003,0.29997,60.00000,8.226530e-006
 995.93700,357.95742, 5.556719e-003,0.29997,60.00000,8.231823e-006
 996.93700,357.75530, 5.569071e-003,0.30005,60.00000,8.237066e-006
 997.93700,357.55293, 5.581454e-003,0.30001,60.00000,8.242311e-006
 998.93700,357.34969, 5.593450e-003,0.29999,60.00000,8.247054e-006
 999.93700,357.14536, 5.605514e-003,0.30000,60.00000,8.251905e-006
1000.93700,356.94059, 5.617510e-003,0.30001,60.00000,8.256616e-006
1001.93700,356.73549, 5.628989e-003,0.30002,60.00000,8.260719e-006
1002.93700,356.53010, 5.641229e-003,0.30000,60.00000,8.265744e-006
1003.93700,356.32557, 5.652959e-003,0.30003,60.00000,8.270113e-006
1004.93700,356.12256, 5.664688e-003,0.29998,60.00000,8.274436e-006
1005.93700,355.92127, 5.676653e-003,0.30004,60.00000,8.279111e-006
1006.93700,355.72177, 5.688278e-003,0.29998,60.00000,8.283269e-006
1007.93700,355.52297, 5.700672e-003,0.29999,60.00000,8.288408e-006
1008.93700,355.32427, 5.713236e-003,0.29998,60.00000,8.293771e-006
1009.93700,355.12565, 5.725553e-003,0.29998,60.00000,8.298799e-006
1010.93700,354.92781, 5.738188e-003,0.29997,60.00000,8.304265e-006
1011.93700,354.73107, 5.750270e-003,0.29999,60.00000,8.308956e-006
1012.93700,354.53444, 5.762477e-003,0.29997,60.00000,8.313770e-006
1013.93700,354.33702, 5.774520e-003,0.30000,60.00000,8.318399e-006
1014.93700,354.13860, 5.786415e-003,0.30004,60.00000,8.322841e-006
1015.93700,353.93955, 5.798575e-003,0.30000,60.00000,8.327655e-006
1016.93700,353.74026, 5.810700e-003,0.29999,60.00000,8.332312e-006
1017.93700,353.54117, 5.822651e-003,0.29998,60.00000,8.336820e-006
1018.93700,353.34235, 5.834745e-003,0.30001,60.00000,8.341463e-006
1019.93700,353.14403, 5.846783e-003,0.30001,60.00000,8.346054e-006
1020.93700,352.94588, 5.859047e-003,0.29998,60.00000,8.350863e-006
1021.93700,352.74786, 5.871195e-003,0.29998,60.00000,8.355512e-006
1022.93700,352.54984, 5.883310e-003,0.30000,60.00000,8.360143e-006
1023.93700,352.35221, 5.895289e-003,0.30002,60.00000,8.364622e-006
1024.93700,352.15471, 5.907036e-003,0.29999,60.00000,8.368747e-006
1025.93700,351.95695, 5.918931e-003,0.30000,60.00000,8.373052e-006
1026.93700,351.75823, 5.930391e-003,0.29999,60.00000,8.376801e-006
1027.93700,351.55762, 5.941877e-003,0.29998,60.00000,8.380671e-006
1028.93700,351.35642, 5.953797e-003,0.29999,60.00000,8.384968e-006
1029.93700,351.15546, 5.965905e-003,0.30003,60.00000,8.389488e-006
1030.93700,350.95450, 5.978145e-003,0.29998,60.00000,8.394184e-006
1031.93700,350.75319, 5.990186e-003,0.30000,60.00000,8.398627e-006
1032.93700,350.55108, 6.002035e-003,0.29999,60.00000,8.402859e-006
1033.93700,350.34817, 6.014273e-003,0.30000,60.00000,8.407467e-006
1034.93700,350.14401, 6.026181e-003,0.30001,60.00000,8.411741e-006
1035.93700,349.93864, 6.038244e-003,0.29995,60.00000,8.416151e-006
1036.93700,349.73253, 6.050171e-003,0.30004,60.00000,8.420395e-006
1037.93700,349.52639, 6.062459e-003,0.30002,60.00000,8.425075e-006
1038.93700,349.32112, 6.074753e-003,0.30000,60.00000,8.429755e-006
1039.93700,349.11652, 6.086710e-003,0.30007,60.00000,8.433974e-006
1040.93700,348.91187, 6.099045e-003,0.29996,60.00000,8.438699e-006
1041.93700,348.70743, 6.111581e-003,0.30000,60.00000,8.443609e-006
1042.93700,348.50396, 6.123873e-003,0.30001,60.00000,8.448231e-006
1043.93700,348.30176, 6.136008e-003,0.30000,60.00000,8.452662e-006
1044.93700,348.10155, 6.147933e-003,0.30000,60.00000,8.456793e-006
1045.93700,347.90232, 6.159432e-003,0.30000,60.00000,8.460452e-006
1046.93700,347.70244, 6.171525e-003,0.30000,60.00000,8.464748e-006
1047.93700,347.50077, 6.183526e-003,0.29999,60.00000,8.468945e-006
1048.93700,347.29843, 6.195791e-003,0.29996,60.00000,8.473626e-006
1049.93700,347.09807, 6.208194e-003,0.30000,60.00000,8.478221e-006
1050.93700,346.89866, 6.221305e-003,0.30000,60.00000,8.483685e-006
1051.93700,346.69770, 6.233997e-003,0.30001,60.00000,8.488698e-006
1052.93700,346.49511, 6.246964e-003,0.30002,60.00000,8.494004e-006
1053.93700,346.29155, 6.259968e-003,0.29996,60.00000,8.499401e-006
1054.93700,346.08836, 6.272786e-003,0.30000,60.00000,8.504448e-006
1055.93700,345.88540, 6.285234e-003,0.30000,60.00000,8.509160e-006
1056.93700,345.68129, 6.297872e-003,0.30001,60.00000,8.514029e-006
1057.93700,345.47846, 6.310720e-003,0.29999,60.00000,8.519168e-006
1058.93700,345.27711, 6.323213e-003,0.30003,60.00000,8.523754e-006
1059.93700,345.07515, 6.335966e-003,0.30002,60.00000,8.528767e-006
1060.93700,344.87256, 6.348899e-003,0.30001,60.00000,8.533958e-006
1061.93700,344.67034, 6.361738e-003,0.30001,60.00000,8.538967e-006
1062.93700,344.46866, 6.373836e-003,0.30000,60.00000,8.543237e-006
1063.93700,344.26654, 6.386612e-003,0.30000,60.00000,8.548163e-006
1064.93700,344.06472, 6.399517e-003,0.29995,60.00000,8.553288e-006
1065.93700,343.86389, 6.412157e-003,0.29998,60.00000,8.558027e-006
1066.93700,343.66420, 6.424067e-003,0.30000,60.00000,8.561953e-006
1067.93700,343.46490, 6.436742e-003,0.30001,60.00000,8.566702e-006
1068.93700,343.26529, 6.448594e-003,0.29998,60.00000,8.570561e-006
1069.93700,343.06625, 6.460738e-003,0.30001,60.00000,8.574711e-006
1070.93700,342.86828, 6.473156e-003,0.29996,60.00000,8.579179e-006
1071.93700,342.67079, 6.485471e-003,0.30003,60.00000,8.583435e-006
1072.93700,342.47204, 6.498095e-003,0.30000,60.00000,8.588189e-006
1073.93700,342.27265, 6.511230e-003,0.29998,60.00000,8.593437e-006
1074.93700,342.07524, 6.523988e-003,0.30000,60.00000,8.598248e-006
1075.93700,341.87865, 6.536475e-003,0.30000,60.00000,8.602767e-006
1076.93700,341.68134, 6.548800e-003,0.29999,60.00000,8.607018e-006
1077.93700,341.48400, 6.561626e-003,0.29997,60.00000,8.611887e-006
1078.93700,341.28619, 6.574298e-003,0.30000,60.00000,8.616583e-006
1079.93700,341.08742, 6.586681e-003,0.29998,60.00000,8.620906e-006
1080.93700,340.88851, 6.599229e-003,0.29999,60.00000,8.625411e-006
1081.93700,340.68911, 6.611485e-003,0.30001,60.00000,8.629595e-006
1082.93700,340.48861, 6.624094e-003,0.29999,60.00000,8.634109e-006
1083.93700,340.28764, 6.636732e-003,0.29999,60.00000,8.638705e-006
1084.93700,340.08646, 6.649029e-003,0.29997,60.00000,8.642850e-006
1085.93700,339.88550, 6.661351e-003,0.29997,60.00000,8.647096e-006
1086.93700,339.68421, 6.673391e-003,0.30000,60.00000,8.650952e-006
1087.93700,339.48180, 6.685427e-003,0.29998,60.00000,8.654813e-006
1088.93700,339.27937, 6.697592e-003,0.30000,60.00000,8.658815e-006
1089.93700,339.07806, 6.709904e-003,0.30002,60.00000,8.662979e-006
1090.93700,338.87803, 6.722391e-003,0.30000,60.00000,8.667320e-006
1091.93700,338.67895, 6.735062e-003,0.30003,60.00000,8.671868e-006
1092.93700,338.48005, 6.747849e-003,0.30002,60.00000,8.676470e-006
1093.93700,338.27994, 6.760020e-003,0.30001,60.00000,8.680398e-006
1094.93700,338.07839, 6.772693e-003,0.30000,60.00000,8.685006e-006
1095.93700,337.87710, 6.784811e-003,0.30001,60.00000,8.688853e-006
1096.93700,337.67727, 6.797156e-003,0.29997,60.00000,8.692943e-006
1097.93700,337.47707, 6.808898e-003,0.30001,60.00000,8.696416e-006
1098.93700,337.27449, 6.820669e-003,0.30004,60.00000,8.699824e-006
1099.93700,337.07090, 6.833012e-003,0.29999,60.00000,8.703990e-006
1100.93700,336.86770, 6.845378e-003,0.29996,60.00000,8.708053e-006
1101.93700,336.66476, 6.857529e-003,0.30000,60.00000,8.711886e-006
1102.93700,336.46120, 6.869805e-003,0.29998,60.00000,8.715917e-006
1103.93700,336.25701, 6.881920e-003,0.30001,60.00000,8.719725e-006
1104.93700,336.05224, 6.894599e-003,0.29998,60.00000,8.724129e-006
1105.93700,335.84736, 6.907494e-003,0.29999,60.00000,8.728799e-006
1106.93700,335.64320, 6.920296e-003,0.30004,60.00000,8.733345e-006
1107.93700,335.43982, 6.932458e-003,0.30006,60.00000,8.737186e-006
1108.93700,335.23737, 6.944302e-003,0.30000,60.00000,8.740617e-006
1109.93700,335.03529, 6.956541e-003,0.29998,60.00000,8.744519e-006
1110.93700,334.83254, 6.969121e-003,0.30003,60.00000,8.748755e-006
1111.93700,334.62805, 6.981713e-003,0.30001,60.00000,8.752967e-006
1112.93700,334.42182, 6.994502e-003,0.30000,60.00000,8.757530e-006
1113.93700,334.21514, 7.007145e-003,0.29999,60.00000,8.761761e-006
1114.93700,334.00796, 7.020033e-003,0.29995,60.00000,8.766354e-006
1115.93700,333.80118, 7.032897e-003,0.29999,60.00000,8.770897e-006
1116.93700,333.59653, 7.046197e-003,0.29999,60.00000,8.775881e-006
1117.93700,333.39519, 7.059480e-003,0.30004,60.00000,8.780851e-006
1118.93700,333.19823, 7.072780e-003,0.30001,60.00000,8.785872e-006
1119.93700,333.00482, 7.086080e-003,0.29998,60.00000,8.790785e-006
1120.93700,332.81428, 7.099077e-003,0.30001,60.00000,8.795401e-006
1121.93700,332.62457, 7.112547e-003,0.29998,60.00000,8.800475e-006
1122.93700,332.43261, 7.125216e-003,0.29999,60.00000,8.804698e-006
1123.93700,332.23658, 7.138199e-003,0.29999,60.00000,8.809319e-006
1124.93700,332.03884, 7.150939e-003,0.29999,60.00000,8.813628e-006
1125.93700,331.84181, 7.163912e-003,0.30000,60.00000,8.818113e-006
1126.93700,331.64453, 7.176577e-003,0.29998,60.00000,8.822354e-006
1127.93700,331.44662, 7.189364e-003,0.30000,60.00000,8.826638e-006
1128.93700,331.24816, 7.202021e-003,0.29998,60.00000,8.830786e-006
1129.93700,331.04895, 7.214722e-003,0.29998,60.00000,8.835083e-006
1130.93700,330.84936, 7.227982e-003,0.29996,60.00000,8.839839e-006
1131.93700,330.64992, 7.241044e-003,0.30002,60.00000,8.844425e-006
1132.93700,330.45031, 7.254577e-003,0.29996,60.00000,8.849497e-006
1133.93700,330.25022, 7.266804e-003,0.29996,60.00000,8.853176e-006
1134.93700,330.04945, 7.279659e-003,0.29998,60.00000,8.857478e-006
1135.93700,329.84936, 7.292387e-003,0.29996,60.00000,8.861682e-006
1136.93700,329.65060, 7.305287e-003,0.29999,60.00000,8.865994e-006
1137.93700,329.45242, 7.317135e-003,0.30002,60.00000,8.869249e-006
1138.93700,329.25392, 7.330019e-003,0.29996,60.00000,8.873573e-006
1139.93700,329.05474, 7.342221e-003,0.29997,60.00000,8.877126e-006
1140.93700,328.85489, 7.354789e-003,0.30000,60.00000,8.881127e-006
1141.93700,328.65372, 7.366852e-003,0.29997,60.00000,8.884494e-006
1142.93700,328.45066, 7.379242e-003,0.29998,60.00000,8.888264e-006
1143.93700,328.24622, 7.391633e-003,0.30001,60.00000,8.892046e-006
1144.93700,328.04093, 7.404010e-003,0.30000,60.00000,8.895776e-006
1145.93700,327.83398, 7.416335e-003,0.30001,60.00000,8.899389e-006
1146.93700,327.62514, 7.429071e-003,0.29997,60.00000,8.903512e-006
1147.93700,327.41556, 7.441436e-003,0.29999,60.00000,8.907211e-006
1148.93700,327.20663, 7.454122e-003,0.30000,60.00000,8.911227e-006
1149.93700,326.99989, 7.467418e-003,0.29999,60.00000,8.915913e-006
1150.93700,326.79509, 7.480252e-003,0.30001,60.00000,8.920015e-006
1151.93700,326.59000, 7.493655e-003,0.29998,60.00000,8.924790e-006
1152.93700,326.38330, 7.506489e-003,0.29998,60.00000,8.928984e-006
1153.93700,326.17604, 7.519113e-003,0.29999,60.00000,8.932914e-006
1154.93700,325.96907, 7.531526e-003,0.30000,60.00000,8.936577e-006
1155.93700,325.76151, 7.543992e-003,0.29999,60.00000,8.940296e-006
1156.93700,325.55303, 7.556456e-003,0.30000,60.00000,8.943998e-006
1157.93700,325.34485, 7.568928e-003,0.30001,60.00000,8.947767e-006
1158.93700,325.13781, 7.581945e-003,0.30002,60.00000,8.952035e-006
1159.93700,324.93116, 7.595047e-003,0.30001,60.00000,8.956355e-006
1160.93700,324.72432, 7.608305e-003,0.30001,60.00000,8.960921e-006
1161.93700,324.51756, 7.621383e-003,0.30001,60.00000,8.965236e-006
1162.93700,324.31120, 7.635606e-003,0.29999,60.00000,8.970751e-006
1163.93700,324.10568, 7.649237e-003,0.29998,60.00000,8.975661e-006
1164.93700,323.90136, 7.662892e-003,0.29999,60.00000,8.980577e-006
1165.93700,323.69789, 7.676319e-003,0.29994,60.00000,8.985181e-006
1166.93700,323.49528, 7.688829e-003,0.30001,60.00000,8.988886e-006
1167.93700,323.29349, 7.701362e-003,0.29999,60.00000,8.992598e-006
1168.93700,323.09155, 7.713828e-003,0.30002,60.00000,8.996176e-006
1169.93700,322.88792, 7.726554e-003,0.30002,60.00000,9.000084e-006
1170.93700,322.68123, 7.739485e-003,0.30002,60.00000,9.004146e-006
1171.93700,322.47136, 7.753463e-003,0.29999,60.00000,9.009303e-006
1172.93700,322.25805, 7.766919e-003,0.30001,60.00000,9.013931e-006
1173.93700,322.04094, 7.780128e-003,0.29995,60.00000,9.018302e-006
1174.93700,321.82309, 7.793168e-003,0.30006,60.00000,9.022483e-006
1175.93700,321.61063, 7.806783e-003,0.29999,60.00000,9.027322e-006
1176.93700,321.40947, 7.820950e-003,0.30003,60.00000,9.032635e-006
1177.93700,321.22008, 7.835308e-003,0.30001,60.00000,9.038136e-006
1178.93700,321.04122, 7.849841e-003,0.29998,60.00000,9.043838e-006
1179.93700,320.87144, 7.864582e-003,0.30000,60.00000,9.049683e-006
1180.93700,320.70913, 7.879055e-003,0.30003,60.00000,9.055275e-006
1181.93700,320.55336, 7.894230e-003,0.30003,60.00000,9.061605e-006
1182.93700,320.40236, 7.908669e-003,0.30000,60.00000,9.067013e-006
1183.93700,320.25280, 7.922295e-003,0.30001,60.00000,9.071621e-006
1184.93700,320.09986, 7.935021e-003,0.30001,60.00000,9.075246e-006
1185.93700,319.93795, 7.946786e-003,0.29999,60.00000,9.077969e-006
1186.93700,319.75923, 7.957762e-003,0.30002,60.00000,9.079866e-006
1187.93700,319.55217, 7.967726e-003,0.30001,60.00000,9.080771e-006
1188.93700,319.29849, 7.977017e-003,0.30000,60.00000,9.081118e-006
1189.93700,318.99893, 7.987559e-003,0.29994,60.00000,9.082827e-006
1190.93700,318.71777, 8.003074e-003,0.30001,60.00000,9.089582e-006
1191.93700,318.48853, 8.018834e-003,0.29997,60.00000,9.096258e-006
1192.93700,318.28434, 8.033120e-003,0.30003,60.00000,9.101366e-006
1193.93700,318.08620, 8.046300e-003,0.30000,60.00000,9.105535e-006
1194.93700,317.88860, 8.059850e-003,0.29999,60.00000,9.110019e-006
1195.93700,317.68838, 8.072960e-003,0.29998,60.00000,9.114068e-006
1196.93700,317.48315, 8.085806e-003,0.30001,60.00000,9.117837e-006
1197.93700,317.27101, 8.098859e-003,0.29996,60.00000,9.121766e-006
1198.93700,317.04970, 8.111251e-003,0.30002,60.00000,9.125140e-006
1199.93700,316.81997, 8.124294e-003,0.30001,60.00000,9.129099e-006
1200.93700,316.58695, 8.136848e-003,0.30000,60.00000,9.132585e-006
1201.93700,316.35892, 8.149716e-003,0.29995,60.00000,9.136439e-006
1202.93700,316.14431, 8.163589e-003,0.29998,60.00000,9.141243e-006
1203.93700,315.94737, 8.178372e-003,0.30001,60.00000,9.146977e-006
1204.93700,315.76761, 8.193655e-003,0.30004,60.00000,9.153152e-006
1205.93700,315.60248, 8.209100e-003,0.30000,60.00000,9.159485e-006
1206.93700,315.44921, 8.224325e-003,0.30000,60.00000,9.165566e-006
1207.93700,315.30389, 8.239710e-003,0.29998,60.00000,9.171676e-006
1208.93700,315.16189, 8.254708e-003,0.29996,60.00000,9.177337e-006
1209.93700,315.01766, 8.268251e-003,0.30000,60.00000,9.181540e-006
1210.93700,314.86395, 8.279996e-003,0.30002,60.00000,9.184038e-006
1211.93700,314.69137, 8.290832e-003,0.30003,60.00000,9.185681e-006
1212.93700,314.48805, 8.301470e-003,0.30001,60.00000,9.187221e-006
1213.93700,314.24086, 8.310787e-003,0.29997,60.00000,9.187382e-006
1214.93700,313.93935, 8.320603e-003,0.29994,60.00000,9.188163e-006
1215.93700,313.61300, 8.332303e-003,0.30000,60.00000,9.190838e-006
1216.93700,313.32331, 8.346335e-003,0.30003,60.00000,9.195628e-006
1217.93700,313.06536, 8.359785e-003,0.29999,60.00000,9.199800e-006
1218.93700,312.82687, 8.373699e-003,0.30001,60.00000,9.204526e-006
1219.93700,312.61161, 8.388968e-003,0.29999,60.00000,9.210614e-006
1220.93700,312.42047, 8.404893e-003,0.29998,60.00000,9.217304e-006
1221.93700,312.25113, 8.421374e-003,0.30001,60.00000,9.224541e-006
1222.93700,312.09828, 8.437798e-003,0.30001,60.00000,9.231523e-006
1223.93700,311.95696, 8.454019e-003,0.30002,60.00000,9.238415e-006
1224.93700,311.82280, 8.469934e-003,0.30000,60.00000,9.244929e-006
1225.93700,311.69248, 8.484924e-003,0.29996,60.00000,9.250485e-006
1226.93700,311.56187, 8.499569e-003,0.29997,60.00000,9.255607e-006
1227.93700,311.42618, 8.513867e-003,0.29996,60.00000,9.260432e-006
1228.93700,311.27983, 8.526924e-003,0.29999,60.00000,9.264132e-006
1229.93700,311.11716, 8.539564e-003,0.29999,60.00000,9.267490e-006
1230.93700,310.93283, 8.551888e-003,0.30000,60.00000,9.270527e-006
1231.93700,310.71993, 8.564005e-003,0.29999,60.00000,9.273339e-006
1232.93700,310.46660, 8.574820e-003,0.29999,60.00000,9.274856e-006
1233.93700,310.15723, 8.584525e-003,0.30001,60.00000,9.275362e-006
1234.93700,309.79605, 8.595283e-003,0.29997,60.00000,9.277094e-006
1235.93700,309.48682, 8.609848e-003,0.30000,60.00000,9.282205e-006
1236.93700,309.23571, 8.624437e-003,0.29999,60.00000,9.287424e-006
1237.93700,309.01831, 8.640369e-003,0.30001,60.00000,9.293915e-006
1238.93700,308.83005, 8.657185e-003,0.29999,60.00000,9.301319e-006
1239.93700,308.66663, 8.674954e-003,0.30001,60.00000,9.309610e-006
1240.93700,308.52157, 8.691574e-003,0.29999,60.00000,9.316619e-006
1241.93700,308.38745, 8.707501e-003,0.29999,60.00000,9.322821e-006
1242.93700,308.25847, 8.722725e-003,0.29998,60.00000,9.328443e-006
1243.93700,308.12962, 8.737249e-003,0.29999,60.00000,9.333312e-006
1244.93700,307.99725, 8.751179e-003,0.30005,60.00000,9.337712e-006
1245.93700,307.85745, 8.764981e-003,0.29999,60.00000,9.341985e-006
1246.93700,307.70695, 8.778725e-003,0.29997,60.00000,9.346238e-006
1247.93700,307.54339, 8.791718e-003,0.29998,60.00000,9.349763e-006
1248.93700,307.36415, 8.804278e-003,0.30003,60.00000,9.352866e-006
1249.93700,307.16301, 8.815707e-003,0.30001,60.00000,9.354794e-006
1250.93700,306.92443, 8.824985e-003,0.29999,60.00000,9.354751e-006
1251.93700,306.60839, 8.832373e-003,0.29999,60.00000,9.352897e-006
1252.93700,306.15800, 8.839669e-003,0.30001,60.00000,9.351216e-006
1253.93700,305.79075, 8.853292e-003,0.30000,60.00000,9.355446e-006
1254.93700,305.53089, 8.868066e-003,0.29997,60.00000,9.360633e-006
1255.93700,305.31929, 8.884093e-003,0.29998,60.00000,9.367046e-006
1256.93700,305.13692, 8.900515e-003,0.29998,60.00000,9.373767e-006
1257.93700,304.97445, 8.916947e-003,0.30000,60.00000,9.380464e-006
1258.93700,304.82516, 8.932728e-003,0.30000,60.00000,9.386524e-006
1259.93700,304.68450, 8.948700e-003,0.29998,60.00000,9.392756e-006
1260.93700,304.54931, 8.964002e-003,0.29998,60.00000,9.398364e-006
1261.93700,304.41662, 8.979097e-003,0.30000,60.00000,9.403639e-006
1262.93700,304.28347, 8.993526e-003,0.30000,60.00000,9.408353e-006
1263.93700,304.14607, 9.008225e-003,0.29995,60.00000,9.413222e-006
1264.93700,304.00021, 9.022314e-003,0.29998,60.00000,9.417659e-006
1265.93700,303.84149, 9.035531e-003,0.30002,60.00000,9.421251e-006
1266.93700,303.66620, 9.048729e-003,0.29998,60.00000,9.424841e-006
1267.93700,303.46937, 9.061023e-003,0.30003,60.00000,9.427549e-006
1268.93700,303.24221, 9.072569e-003,0.29998,60.00000,9.429577e-006
1269.93700,302.96669, 9.082628e-003,0.29998,60.00000,9.430212e-006
1270.93700,302.61405, 9.092341e-003,0.29999,60.00000,9.430610e-006
1271.93700,302.25134, 9.106072e-003,0.30001,60.00000,9.434865e-006
1272.93700,301.95841, 9.121299e-003,0.29998,60.00000,9.440203e-006
1273.93700,301.69954, 9.137148e-003,0.29998,60.00000,9.446298e-006
1274.93700,301.46700, 9.153523e-003,0.30003,60.00000,9.452800e-006
1275.93700,301.25618, 9.170213e-003,0.30002,60.00000,9.459558e-006
1276.93700,301.06375, 9.186932e-003,0.29998,60.00000,9.466429e-006
1277.93700,300.88874, 9.203626e-003,0.29997,60.00000,9.473246e-006
1278.93700,300.72847, 9.220510e-003,0.30001,60.00000,9.480116e-006
1279.93700,300.57815, 9.237228e-003,0.29997,60.00000,9.486782e-006
1280.93700,300.43352, 9.253667e-003,0.29998,60.00000,9.493255e-006
1281.93700,300.29139, 9.270135e-003,0.30001,60.00000,9.499735e-006
1282.93700,300.14904, 9.286054e-003,0.29996,60.00000,9.505584e-006
1283.93700,300.00350, 9.300911e-003,0.30001,60.00000,9.510556e-006
1284.93700,299.85082, 9.314801e-003,0.30002,60.00000,9.514524e-006
1285.93700,299.68845, 9.328961e-003,0.29998,60.00000,9.518947e-006
1286.93700,299.51619, 9.343254e-003,0.29996,60.00000,9.523418e-006
1287.93700,299.33593, 9.357609e-003,0.30004,60.00000,9.527934e-006
1288.93700,299.14528, 9.371546e-003,0.29998,60.00000,9.531932e-006
1289.93700,298.93664, 9.384572e-003,0.30003,60.00000,9.535163e-006
1290.93700,298.69942, 9.396747e-003,0.30002,60.00000,9.537608e-006
1291.93700,298.42627, 9.408503e-003,0.29997,60.00000,9.539731e-006
1292.93700,298.12991, 9.421311e-003,0.30000,60.00000,9.542904e-006
1293.93700,297.85693, 9.436340e-003,0.29995,60.00000,9.548045e-006
1294.93700,297.61565, 9.451653e-003,0.29999,60.00000,9.553190e-006
1295.93700,297.38518, 9.466267e-003,0.29999,60.00000,9.557860e-006
1296.93700,297.16105, 9.481492e-003,0.29995,60.00000,9.563168e-006
1297.93700,296.94980, 9.497949e-003,0.30001,60.00000,9.569534e-006
1298.93700,296.75495, 9.515041e-003,0.29997,60.00000,9.576475e-006
1299.93700,296.57396, 9.531861e-003,0.29999,60.00000,9.583064e-006
1300.93700,296.40010, 9.548532e-003,0.29999,60.00000,9.589425e-006
1301.93700,296.22736, 9.564607e-003,0.29996,60.00000,9.595362e-006
1302.93700,296.05438, 9.580813e-003,0.30000,60.00000,9.601469e-006
1303.93700,295.88163, 9.596910e-003,0.30001,60.00000,9.607368e-006
1304.93700,295.70934, 9.612859e-003,0.29999,60.00000,9.613192e-006
1305.93700,295.53692, 9.628849e-003,0.30002,60.00000,9.618971e-006
1306.93700,295.36480, 9.644903e-003,0.29996,60.00000,9.624826e-006
1307.93700,295.19285, 9.660748e-003,0.29999,60.00000,9.630530e-006
1308.93700,295.01942, 9.676641e-003,0.29998,60.00000,9.636189e-006
1309.93700,294.84180, 9.692190e-003,0.29995,60.00000,9.641524e-006
1310.93700,294.65571, 9.706945e-003,0.29999,60.00000,9.646096e-006
1311.93700,294.45303, 9.720544e-003,0.30003,60.00000,9.649633e-006
1312.93700,294.22474, 9.733862e-003,0.30000,60.00000,9.653024e-006
1313.93700,293.96809, 9.747485e-003,0.29996,60.00000,9.656666e-006
1314.93700,293.69335, 9.763092e-003,0.29996,60.00000,9.662177e-006
1315.93700,293.43039, 9.779976e-003,0.29997,60.00000,9.668793e-006
1316.93700,293.19095, 9.797062e-003,0.30000,60.00000,9.675456e-006
1317.93700,292.96841, 9.814247e-003,0.29996,60.00000,9.682230e-006
1318.93700,292.75853, 9.830789e-003,0.29998,60.00000,9.688377e-006
1319.93700,292.55440, 9.847245e-003,0.30001,60.00000,9.694416e-006
1320.93700,292.35186, 9.863811e-003,0.30000,60.00000,9.700605e-006
1321.93700,292.14897, 9.879846e-003,0.29998,60.00000,9.706254e-006
1322.93700,291.94008, 9.894925e-003,0.29998,60.00000,9.711075e-006
1323.93700,291.71982, 9.909855e-003,0.29998,60.00000,9.715786e-006
1324.93700,291.49090, 9.925459e-003,0.30000,60.00000,9.721106e-006
1325.93700,291.26451, 9.941648e-003,0.29999,60.00000,9.726981e-006
1326.93700,291.04988, 9.958338e-003,0.30002,60.00000,9.733238e-006
1327.93700,290.84626, 9.974955e-003,0.30001,60.00000,9.739349e-006
1328.93700,290.64917, 9.993029e-003,0.29999,60.00000,9.746771e-006
1329.93700,290.45674, 1.001044e-002,0.29997,60.00000,9.753609e-006
1330.93700,290.26844, 1.002803e-002,0.29999,60.00000,9.760602e-006
1331.93700,290.08384, 1.004586e-002,0.30000,60.00000,9.767821e-006
1332.93700,289.90209, 1.006344e-002,0.30002,60.00000,9.774757e-006
1333.93700,289.72225, 1.008127e-002,0.29999,60.00000,9.781916e-006
1334.93700,289.54378, 1.009951e-002,0.29998,60.00000,9.789390e-006
1335.93700,289.36582, 1.011728e-002,0.30000,60.00000,9.796523e-006
1336.93700,289.18702, 1.013501e-002,0.29999,60.00000,9.803533e-006
1337.93700,289.00605, 1.015256e-002,0.29999,60.00000,9.810337e-006
1338.93700,288.81873, 1.016943e-002,0.29999,60.00000,9.816548e-006
1339.93700,288.61835, 1.018504e-002,0.30002,60.00000,9.821643e-006
1340.93700,288.39909, 1.020044e-002,0.29998,60.00000,9.826648e-006
1341.93700,288.16101, 1.021647e-002,0.29997,60.00000,9.832106e-006
1342.93700,287.90991, 1.023371e-002,0.29998,60.00000,9.838740e-006
1343.93700,287.66634, 1.025254e-002,0.29998,60.00000,9.846829e-006
1344.93700,287.44568, 1.027143e-002,0.29999,60.00000,9.854723e-006
1345.93700,287.24366, 1.029020e-002,0.29999,60.00000,9.862590e-006
1346.93700,287.05356, 1.030903e-002,0.30003,60.00000,9.870402e-006
1347.93700,286.86789, 1.032674e-002,0.29998,60.00000,9.877202e-006
1348.93700,286.67901, 1.034362e-002,0.30000,60.00000,9.883346e-006
1349.93700,286.48527, 1.036073e-002,0.29998,60.00000,9.889732e-006
1350.93700,286.28920, 1.037777e-002,0.30001,60.00000,9.896001e-006
1351.93700,286.08930, 1.039429e-002,0.30002,60.00000,9.901780e-006
1352.93700,285.88259, 1.041090e-002,0.30000,60.00000,9.907640e-006
1353.93700,285.67021, 1.042764e-002,0.29998,60.00000,9.913659e-006
1354.93700,285.45852, 1.044512e-002,0.29999,60.00000,9.920326e-006
1355.93700,285.25487, 1.046355e-002,0.29995,60.00000,9.927787e-006
1356.93700,285.05849, 1.048244e-002,0.29997,60.00000,9.935456e-006
1357.93700,284.86119, 1.049998e-002,0.29998,60.00000,9.942048e-006
1358.93700,284.65582, 1.051773e-002,0.29999,60.00000,9.948932e-006
1359.93700,284.44350, 1.053563e-002,0.29995,60.00000,9.955829e-006
1360.93700,284.22887, 1.055377e-002,0.30001,60.00000,9.962961e-006
1361.93700,284.01357, 1.057248e-002,0.29999,60.00000,9.970550e-006
1362.93700,283.79845, 1.059093e-002,0.29996,60.00000,9.977933e-006
1363.93700,283.58595, 1.060952e-002,0.29999,60.00000,9.985443e-006
1364.93700,283.38114, 1.062872e-002,0.29998,60.00000,9.993439e-006
1365.93700,283.18853, 1.064796e-002,0.30002,60.00000,1.000151e-005
1366.93700,283.00500, 1.066670e-002,0.29999,60.00000,1.000887e-005
1367.93700,282.82384, 1.068480e-002,0.29997,60.00000,1.001584e-005
1368.93700,282.63966, 1.070347e-002,0.30000,60.00000,1.002329e-005
1369.93700,282.45099, 1.072289e-002,0.29999,60.00000,1.003147e-005
1370.93700,282.26048, 1.074334e-002,0.30001,60.00000,1.004043e-005
1371.93700,282.07170, 1.076355e-002,0.29999,60.00000,1.004922e-005
1372.93700,281.88528, 1.078398e-002,0.30000,60.00000,1.005811e-005
1373.93700,281.69998, 1.080387e-002,0.30000,60.00000,1.006658e-005
1374.93700,281.51426, 1.082395e-002,0.30000,60.00000,1.007515e-005
1375.93700,281.32877, 1.084398e-002,0.29999,60.00000,1.008371e-005
1376.93700,281.14554, 1.086471e-002,0.29999,60.00000,1.009282e-005
1377.93700,280.96533, 1.088453e-002,0.29999,60.00000,1.010116e-005
1378.93700,280.78855, 1.090433e-002,0.29996,60.00000,1.010952e-005
1379.93700,280.61717, 1.092446e-002,0.29997,60.00000,1.011807e-005
1380.93700,280.45067, 1.094405e-002,0.29996,60.00000,1.012611e-005
1381.93700,280.28596, 1.096478e-002,0.29996,60.00000,1.013510e-005
1382.93700,280.12091, 1.098515e-002,0.30002,60.00000,1.014385e-005
1383.93700,279.95540, 1.100545e-002,0.29999,60.00000,1.015251e-005
1384.93700,279.78991, 1.102583e-002,0.30001,60.00000,1.016120e-005
1385.93700,279.62470, 1.104670e-002,0.30000,60.00000,1.017033e-005
1386.93700,279.45906, 1.106729e-002,0.29999,60.00000,1.017913e-005
1387.93700,279.29168, 1.108746e-002,0.30000,60.00000,1.018763e-005
1388.93700,279.12206, 1.110754e-002,0.29998,60.00000,1.019607e-005
1389.93700,278.95042, 1.112745e-002,0.30000,60.00000,1.020421e-005
1390.93700,278.77537, 1.114661e-002,0.30000,60.00000,1.021180e-005
1391.93700,278.59473, 1.116624e-002,0.30002,60.00000,1.021984e-005
1392.93700,278.41111, 1.118654e-002,0.29998,60.00000,1.022838e-005
1393.93700,278.22929, 1.120749e-002,0.30000,60.00000,1.023748e-005
1394.93700,278.05153, 1.122873e-002,0.30002,60.00000,1.024669e-005
1395.93700,277.87520, 1.124949e-002,0.29997,60.00000,1.025560e-005
1396.93700,277.69751, 1.127057e-002,0.29999,60.00000,1.026466e-005
1397.93700,277.51732, 1.129125e-002,0.29998,60.00000,1.027333e-005
1398.93700,277.32909, 1.131171e-002,0.29999,60.00000,1.028194e-005
1399.93700,277.12590, 1.133316e-002,0.30000,60.00000,1.029124e-005

