#EXPORTTYPE:       ,DATA ALL                          
#FILE:             ,李院长 MgO-C C15-骨 C15-基 1400.ngb-dl9
#FORMAT:           ,NETZSCH5                          
#FTYPE:            ,ANSI                              
#IDENTITY:         ,C15-基                             
#DECIMAL:          ,POINT                             
#SEPARATOR:        ,COMMA                             
#MTYPE:            ,DIL                               
#INSTRUMENT:       ,NETZSCH DIL 402SU                 
#PROJECT:          ,123                               
#DATE/TIME:        ,2025/6/5 17:20:27 (UTC+8)         
#CORR. FILE:       ,石墨炉 1400度-1.ngb-cl9               
#TEMPCAL:          ,TCALZERO.TMX                      
#LABORATORY:       ,wust                              
#OPERATOR:         ,                                  
#REMARK:           ,                                  
#SAMPLE:           ,镁碳                                
#SAMPLE LENGTH /mm:,25.68                             
#MATERIAL:         ,镁碳                                
#MEASMODE:         ,Standard Expansion                
#M.RANGE /μm:      ,50000                             
#CORR. CODE:       ,080                               
#RANGE:            ,1403°C/5.0(K/min)/200°C           
#SEGMENT:          ,S2/2                              
#SEG. 2:           ,1403°C/5.0(K/min)/200°C           
#Tref:             ,210.0°C                           

##Temp./°C,Time/min,dL/Lo,Force/N,Gas Flow(protective)/(ml/min),m. CTE(2)/(1/K)
 201.07001,516.18250,-2.986154e-004,0.29999,60.00000,4.955325e-006
 202.07001,515.98262,-2.932963e-004,0.29999,60.00000,4.910949e-006
 203.07001,515.78021,-2.879581e-004,0.29998,60.00000,4.850903e-006
 204.07001,515.57604,-2.830046e-004,0.30000,60.00000,4.830491e-006
 205.07001,515.37136,-2.783778e-004,0.30000,60.00000,4.776379e-006
 206.07001,515.16854,-2.731223e-004,0.30002,60.00000,4.730503e-006
 207.07001,514.96927,-2.679378e-004,0.29999,60.00000,4.685646e-006
 208.07001,514.77395,-2.631566e-004,0.29998,60.00000,4.641678e-006
 209.07001,514.58231,-2.584043e-004,0.30000,60.00000,4.598539e-006
 210.07001,514.39269,-2.537100e-004,0.29998,60.00000,4.555854e-006
 211.07001,514.20355,-2.494022e-004,0.30001,60.00000,4.513275e-006
 212.07001,514.01319,-2.458972e-004,0.29998,60.00000,4.470424e-006
 213.07001,513.82007,-2.411878e-004,0.30003,60.00000,4.426951e-006
 214.07001,513.62339,-2.366695e-004,0.30000,60.00000,4.382678e-006
 215.07001,513.42296,-2.323405e-004,0.29998,60.00000,4.337591e-006
 216.07001,513.21915,-2.278846e-004,0.30001,60.00000,4.363392e-006
 217.07001,513.01443,-2.235458e-004,0.30000,60.00000,4.359981e-006
 218.07001,512.81146,-2.184217e-004,0.29999,60.00000,4.456295e-006
 219.07001,512.61162,-2.126745e-004,0.30000,60.00000,4.597111e-006
 220.07001,512.41649,-2.074333e-004,0.29999,60.00000,4.663980e-006
 221.07001,512.22515,-2.023069e-004,0.30000,60.00000,4.703243e-006
 222.07001,512.03620,-1.974285e-004,0.29998,60.00000,4.718652e-006
 223.07001,511.84764,-1.926113e-004,0.29998,60.00000,4.724422e-006
 224.07001,511.65741,-1.878672e-004,0.30001,60.00000,4.724659e-006
 225.07001,511.46377,-1.835836e-004,0.30000,60.00000,4.694862e-006
 226.07001,511.26548,-1.799171e-004,0.30001,60.00000,4.630819e-006
 227.07001,511.06285,-1.746419e-004,0.30002,60.00000,4.669158e-006
 228.07001,510.85743,-1.700327e-004,0.29999,60.00000,4.665928e-006
 229.07001,510.65110,-1.640523e-004,0.29999,60.00000,4.736103e-006
 230.07001,510.44715,-1.580654e-004,0.30000,60.00000,4.799073e-006
 231.07001,510.24783,-1.522534e-004,0.30000,60.00000,4.847463e-006
 232.07001,510.05309,-1.463720e-004,0.29997,60.00000,4.894444e-006
 233.07001,509.86131,-1.407525e-004,0.30000,60.00000,4.926090e-006
 234.07001,509.67107,-1.353874e-004,0.30001,60.00000,4.943186e-006
 235.07001,509.48101,-1.298693e-004,0.29996,60.00000,4.965260e-006
 236.07001,509.28884,-1.245640e-004,0.30000,60.00000,4.977655e-006
 237.07001,509.09268,-1.192911e-004,0.30002,60.00000,4.988844e-006
 238.07001,508.89248,-1.140384e-004,0.29999,60.00000,4.999363e-006
 239.07001,508.68882,-1.087963e-004,0.29999,60.00000,5.007705e-006
 240.07001,508.48355,-1.028702e-004,0.29998,60.00000,5.038665e-006
 241.07001,508.27941,-9.678143e-005,0.30001,60.00000,5.071929e-006
 242.07001,508.07798,-9.089502e-005,0.30000,60.00000,5.097435e-006
 243.07001,507.88087,-8.532736e-005,0.30001,60.00000,5.112045e-006
 244.07001,507.68753,-7.979270e-005,0.29998,60.00000,5.123450e-006
 245.07001,507.49671,-7.420962e-005,0.30000,60.00000,5.136466e-006
 246.07001,507.30658,-6.930559e-005,0.29996,60.00000,5.130125e-006
 247.07001,507.11493,-6.532444e-005,0.30003,60.00000,5.099456e-006
 248.07001,506.92084,-6.040154e-005,0.30002,60.00000,5.094890e-006
 249.07001,506.72365,-5.524983e-005,0.30002,60.00000,5.096515e-006
 250.07001,506.52376,-5.011412e-005,0.29999,60.00000,5.097008e-006
 251.07001,506.32260,-4.451399e-005,0.29999,60.00000,5.109605e-006
 252.07001,506.12132,-3.966338e-005,0.29997,60.00000,5.103197e-006
 253.07001,505.92130,-3.503257e-005,0.29999,60.00000,5.092771e-006
 254.07001,505.72371,-2.973760e-005,0.29999,60.00000,5.097507e-006
 255.07001,505.52824,-2.523218e-005,0.29999,60.00000,5.084173e-006
 256.07001,505.33417,-2.069693e-005,0.30000,60.00000,5.072019e-006
 257.07001,505.14058,-1.585214e-005,0.30000,60.00000,5.067327e-006
 258.07001,504.94621,-1.059321e-005,0.29997,60.00000,5.071226e-006
 259.07001,504.75041,-5.145953e-006,0.30001,60.00000,5.078511e-006
 260.07001,504.55243, 3.892625e-007,0.30000,60.00000,5.087715e-006
 261.07001,504.35251, 6.270905e-006,0.30000,60.00000,5.103644e-006
 262.07001,504.15231, 1.233329e-005,0.29998,60.00000,5.121999e-006
 263.07001,503.95335, 1.836260e-005,0.30000,60.00000,5.139243e-006
 264.07001,503.75651, 2.431191e-005,0.30000,60.00000,5.154429e-006
 265.07001,503.56123, 3.010377e-005,0.30001,60.00000,5.165637e-006
 266.07001,503.36722, 3.559262e-005,0.30001,60.00000,5.171515e-006
 267.07001,503.17404, 4.078385e-005,0.30005,60.00000,5.171705e-006
 268.07001,502.97987, 4.656792e-005,0.30000,60.00000,5.181827e-006
 269.07001,502.78370, 5.198791e-005,0.30000,60.00000,5.186020e-006
 270.07001,502.58548, 5.803384e-005,0.29999,60.00000,5.200849e-006
 271.07001,502.38514, 6.437606e-005,0.30001,60.00000,5.218961e-006
 272.07001,502.18384, 6.988173e-005,0.30000,60.00000,5.223747e-006
 273.07001,501.98300, 7.614567e-005,0.30000,60.00000,5.240556e-006
 274.07001,501.78386, 8.191939e-005,0.30001,60.00000,5.249428e-006
 275.07001,501.58670, 8.676802e-005,0.30002,60.00000,5.242317e-006
 276.07001,501.39170, 9.066311e-005,0.29998,60.00000,5.222143e-006
 277.07001,501.19789, 9.597435e-005,0.30000,60.00000,5.223427e-006
 278.07001,501.00436, 1.011142e-004,0.30001,60.00000,5.222258e-006
 279.07001,500.81001, 1.065090e-004,0.30000,60.00000,5.224401e-006
 280.07001,500.61371, 1.120647e-004,0.30002,60.00000,5.228985e-006
 281.07001,500.41534, 1.179455e-004,0.29998,60.00000,5.238800e-006
 282.07001,500.21498, 1.227193e-004,0.29999,60.00000,5.231943e-006
 283.07001,500.01377, 1.291700e-004,0.30000,60.00000,5.249085e-006
 284.07001,499.81264, 1.354913e-004,0.30001,60.00000,5.263353e-006
 285.07001,499.61230, 1.415606e-004,0.30001,60.00000,5.274143e-006
 286.07001,499.41336, 1.475818e-004,0.29997,60.00000,5.284178e-006
 287.07001,499.21631, 1.530060e-004,0.29999,60.00000,5.286217e-006
 288.07001,499.02094, 1.591359e-004,0.30000,60.00000,5.296545e-006
 289.07001,498.82669, 1.649619e-004,0.29998,60.00000,5.303438e-006
 290.07001,498.63334, 1.705516e-004,0.29997,60.00000,5.306748e-006
 291.07001,498.44071, 1.748898e-004,0.30000,60.00000,5.295061e-006
 292.07001,498.24757, 1.804887e-004,0.30000,60.00000,5.298679e-006
 293.07001,498.05382, 1.864417e-004,0.29999,60.00000,5.306502e-006
 294.07001,497.85919, 1.924946e-004,0.30001,60.00000,5.314978e-006
 295.07001,497.66381, 1.987031e-004,0.30001,60.00000,5.326168e-006
 296.07001,497.46721, 2.050484e-004,0.30000,60.00000,5.337364e-006
 297.07001,497.26967, 2.104977e-004,0.29998,60.00000,5.338786e-006
 298.07001,497.07121, 2.167681e-004,0.30002,60.00000,5.349391e-006
 299.07001,496.87214, 2.227817e-004,0.29997,60.00000,5.356916e-006
 300.07001,496.67369, 2.289968e-004,0.29999,60.00000,5.366733e-006
 301.07001,496.47668, 2.352936e-004,0.30000,60.00000,5.376841e-006
 302.07001,496.28127, 2.412613e-004,0.29999,60.00000,5.383110e-006
 303.07001,496.08704, 2.472720e-004,0.30001,60.00000,5.390005e-006
 304.07001,495.89390, 2.524031e-004,0.29999,60.00000,5.387173e-006
 305.07001,495.70189, 2.582846e-004,0.29998,60.00000,5.392425e-006
 306.07001,495.51054, 2.640435e-004,0.29999,60.00000,5.396365e-006
 307.07001,495.31960, 2.696275e-004,0.29999,60.00000,5.398194e-006
 308.07001,495.12829, 2.737196e-004,0.30001,60.00000,5.384799e-006
 309.07001,494.93610, 2.795386e-004,0.30000,60.00000,5.389163e-006
 310.07001,494.74267, 2.852703e-004,0.30000,60.00000,5.392672e-006
 311.07001,494.54759, 2.905491e-004,0.30001,60.00000,5.391442e-006
 312.07001,494.35111, 2.963763e-004,0.30000,60.00000,5.395510e-006
 313.07001,494.15358, 3.020219e-004,0.29996,60.00000,5.397869e-006
 314.07001,493.95543, 3.077896e-004,0.30001,60.00000,5.401640e-006
 315.07001,493.75725, 3.130398e-004,0.30003,60.00000,5.400493e-006
 316.07001,493.55953, 3.192035e-004,0.30001,60.00000,5.407437e-006
 317.07001,493.36281, 3.253243e-004,0.29998,60.00000,5.414205e-006
 318.07001,493.16727, 3.315579e-004,0.30000,60.00000,5.421723e-006
 319.07001,492.97312, 3.375746e-004,0.30003,60.00000,5.427059e-006
 320.07001,492.78000, 3.441054e-004,0.29999,60.00000,5.437004e-006
 321.07001,492.58744, 3.498443e-004,0.30001,60.00000,5.439868e-006
 322.07001,492.39543, 3.552937e-004,0.29999,60.00000,5.439871e-006
 323.07001,492.20337, 3.613691e-004,0.29999,60.00000,5.445389e-006
 324.07001,492.01031, 3.673762e-004,0.30000,60.00000,5.450507e-006
 325.07001,491.81569, 3.737636e-004,0.30002,60.00000,5.458498e-006
 326.07001,491.61929, 3.794920e-004,0.30001,60.00000,5.460952e-006
 327.07001,491.42092, 3.856396e-004,0.29996,60.00000,5.466769e-006
 328.07001,491.22126, 3.919537e-004,0.29998,60.00000,5.474032e-006
 329.07001,491.02070, 3.981006e-004,0.30000,60.00000,5.479755e-006
 330.07001,490.81990, 4.038124e-004,0.29999,60.00000,5.481662e-006
 331.07001,490.61998, 4.100683e-004,0.29999,60.00000,5.488115e-006
 332.07001,490.42158, 4.167237e-004,0.30001,60.00000,5.497501e-006
 333.07001,490.22509, 4.232464e-004,0.30001,60.00000,5.506061e-006
 334.07001,490.03027, 4.299013e-004,0.30003,60.00000,5.515141e-006
 335.07001,489.83676, 4.360776e-004,0.30001,60.00000,5.520393e-006
 336.07001,489.64368, 4.427972e-004,0.29999,60.00000,5.529738e-006
 337.07001,489.45047, 4.492327e-004,0.30000,60.00000,5.536890e-006
 338.07001,489.25682, 4.557166e-004,0.29997,60.00000,5.544275e-006
 339.07001,489.06193, 4.622568e-004,0.30001,60.00000,5.552062e-006
 340.07001,488.86539, 4.685830e-004,0.30002,60.00000,5.558056e-006
 341.07001,488.66740, 4.726982e-004,0.30000,60.00000,5.546881e-006
 342.07001,488.46838, 4.788884e-004,0.30001,60.00000,5.551939e-006
 343.07001,488.26879, 4.851899e-004,0.30002,60.00000,5.557418e-006
 344.07001,488.06908, 4.903348e-004,0.30003,60.00000,5.554541e-006
 345.07001,487.87004, 4.965145e-004,0.29999,60.00000,5.559442e-006
 346.07001,487.67233, 5.031315e-004,0.30001,60.00000,5.566872e-006
 347.07001,487.47642, 5.095197e-004,0.30000,60.00000,5.573101e-006
 348.07001,487.28153, 5.158089e-004,0.30001,60.00000,5.578186e-006
 349.07001,487.08713, 5.221541e-004,0.29999,60.00000,5.583815e-006
 350.07001,486.89247, 5.284910e-004,0.30000,60.00000,5.589101e-006
 351.07001,486.69733, 5.348867e-004,0.29999,60.00000,5.594749e-006
 352.07001,486.50179, 5.409596e-004,0.29999,60.00000,5.598092e-006
 353.07001,486.30535, 5.473758e-004,0.30000,60.00000,5.603658e-006
 354.07001,486.10786, 5.532235e-004,0.30000,60.00000,5.605481e-006
 355.07001,485.90961, 5.576577e-004,0.30001,60.00000,5.597563e-006
 356.07001,485.71126, 5.634046e-004,0.30002,60.00000,5.598588e-006
 357.07001,485.51311, 5.694913e-004,0.30003,60.00000,5.601742e-006
 358.07001,485.31504, 5.751311e-004,0.29997,60.00000,5.602006e-006
 359.07001,485.11710, 5.814713e-004,0.29999,60.00000,5.606981e-006
 360.07001,484.91949, 5.874610e-004,0.30001,60.00000,5.609502e-006
 361.07001,484.72241, 5.932887e-004,0.29998,60.00000,5.610994e-006
 362.07001,484.52532, 5.997375e-004,0.30000,60.00000,5.616347e-006
 363.07001,484.32821, 6.060731e-004,0.29997,60.00000,5.621133e-006
 364.07001,484.13131, 6.114330e-004,0.30000,60.00000,5.619534e-006
 365.07001,483.93463, 6.180803e-004,0.29999,60.00000,5.626112e-006
 366.07001,483.73826, 6.249026e-004,0.30001,60.00000,5.633854e-006
 367.07001,483.54151, 6.303057e-004,0.29998,60.00000,5.632220e-006
 368.07001,483.34486, 6.367114e-004,0.30002,60.00000,5.637137e-006
 369.07001,483.14832, 6.433352e-004,0.29999,60.00000,5.643495e-006
 370.07001,482.95180, 6.496120e-004,0.29997,60.00000,5.647372e-006
 371.07001,482.75573, 6.566098e-004,0.29998,60.00000,5.655711e-006
 372.07001,482.55951, 6.633126e-004,0.29999,60.00000,5.662201e-006
 373.07001,482.36336, 6.700697e-004,0.30001,60.00000,5.668981e-006
 374.07001,482.16755, 6.768061e-004,0.30000,60.00000,5.675470e-006
 375.07001,481.97206, 6.836187e-004,0.29998,60.00000,5.682342e-006
 376.07001,481.77679, 6.867698e-004,0.30000,60.00000,5.667012e-006
 377.07001,481.58207, 6.941500e-004,0.29998,60.00000,5.677413e-006
 378.07001,481.38771, 7.008046e-004,0.30002,60.00000,5.683158e-006
 379.07001,481.19328, 7.072675e-004,0.30000,60.00000,5.687799e-006
 380.07001,480.99869, 7.136821e-004,0.30001,60.00000,5.692066e-006
 381.07001,480.80436, 7.196633e-004,0.30001,60.00000,5.693798e-006
 382.07001,480.61011, 7.258840e-004,0.30000,60.00000,5.696920e-006
 383.07001,480.41577, 7.320956e-004,0.30000,60.00000,5.699770e-006
 384.07001,480.22112, 7.384525e-004,0.29998,60.00000,5.703646e-006
 385.07001,480.02578, 7.449611e-004,0.29998,60.00000,5.708029e-006
 386.07001,479.83008, 7.512921e-004,0.29998,60.00000,5.711632e-006
 387.07001,479.63413, 7.566341e-004,0.30001,60.00000,5.709588e-006
 388.07001,479.43854, 7.632303e-004,0.30002,60.00000,5.714493e-006
 389.07001,479.24353, 7.692142e-004,0.30002,60.00000,5.716132e-006
 390.07001,479.04865, 7.753948e-004,0.30000,60.00000,5.718737e-006
 391.07001,478.85411, 7.821384e-004,0.29998,60.00000,5.724572e-006
 392.07001,478.65974, 7.888311e-004,0.29999,60.00000,5.729671e-006
 393.07001,478.46561, 7.951604e-004,0.30000,60.00000,5.732814e-006
 394.07001,478.27148, 8.012781e-004,0.30000,60.00000,5.734970e-006
 395.07001,478.07688, 8.074417e-004,0.30000,60.00000,5.737327e-006
 396.07001,477.88175, 8.132511e-004,0.30000,60.00000,5.737727e-006
 397.07001,477.68587, 8.197044e-004,0.29999,60.00000,5.741496e-006
 398.07001,477.48958, 8.258577e-004,0.30002,60.00000,5.743753e-006
 399.07001,477.29307, 8.327111e-004,0.29998,60.00000,5.749618e-006
 400.07001,477.09639, 8.394759e-004,0.30000,60.00000,5.755038e-006
 401.07001,476.89962, 8.456033e-004,0.29999,60.00000,5.757032e-006
 402.07001,476.70338, 8.523926e-004,0.30001,60.00000,5.762243e-006
 403.07001,476.50756, 8.592062e-004,0.30000,60.00000,5.767683e-006
 404.07001,476.31152, 8.660391e-004,0.29999,60.00000,5.773167e-006
 405.07001,476.11549, 8.723932e-004,0.29997,60.00000,5.776150e-006
 406.07001,475.91973, 8.789108e-004,0.30002,60.00000,5.779928e-006
 407.07001,475.72413, 8.850406e-004,0.29997,60.00000,5.781692e-006
 408.07001,475.52877, 8.911226e-004,0.29999,60.00000,5.783212e-006
 409.07001,475.33387, 8.979428e-004,0.29999,60.00000,5.788453e-006
 410.07001,475.13884, 9.046001e-004,0.29999,60.00000,5.792780e-006
 411.07001,474.94375, 9.110707e-004,0.29998,60.00000,5.796156e-006
 412.07001,474.74914, 9.179219e-004,0.30002,60.00000,5.801385e-006
 413.07001,474.55440, 9.248346e-004,0.29998,60.00000,5.806839e-006
 414.07001,474.35884, 9.315899e-004,0.30001,60.00000,5.811397e-006
 415.07001,474.16263, 9.382976e-004,0.30001,60.00000,5.815812e-006
 416.07001,473.96581, 9.435386e-004,0.29999,60.00000,5.813044e-006
 417.07001,473.76829, 9.499534e-004,0.30002,60.00000,5.815923e-006
 418.07001,473.57052, 9.565941e-004,0.29998,60.00000,5.819961e-006
 419.07001,473.37319, 9.616856e-004,0.30002,60.00000,5.816521e-006
 420.07001,473.17602, 9.675987e-004,0.29999,60.00000,5.817019e-006
 421.07001,472.97892, 9.733593e-004,0.30002,60.00000,5.816673e-006
 422.07001,472.78225, 9.802028e-004,0.29998,60.00000,5.821584e-006
 423.07001,472.58620, 9.867773e-004,0.30000,60.00000,5.824930e-006
 424.07001,472.39054, 9.934546e-004,0.29997,60.00000,5.829078e-006
 425.07001,472.19473, 1.000278e-003,0.30002,60.00000,5.833664e-006
 426.07001,471.99903, 1.007015e-003,0.30000,60.00000,5.837852e-006
 427.07001,471.80299, 1.013687e-003,0.30002,60.00000,5.841707e-006
 428.07001,471.60637, 1.020478e-003,0.30003,60.00000,5.846096e-006
 429.07001,471.40897, 1.027622e-003,0.30004,60.00000,5.851815e-006
 430.07001,471.21067, 1.034794e-003,0.30000,60.00000,5.857871e-006
 431.07001,471.01167, 1.041931e-003,0.30002,60.00000,5.863778e-006
 432.07001,470.81248, 1.049313e-003,0.29996,60.00000,5.870634e-006
 433.07001,470.61350, 1.056512e-003,0.30001,60.00000,5.876526e-006
 434.07001,470.41489, 1.064012e-003,0.30002,60.00000,5.883771e-006
 435.07001,470.21679, 1.071063e-003,0.30002,60.00000,5.888938e-006
 436.07001,470.01931, 1.077794e-003,0.29999,60.00000,5.892628e-006
 437.07001,469.82226, 1.085012e-003,0.30003,60.00000,5.898562e-006
 438.07001,469.62591, 1.092153e-003,0.30001,60.00000,5.904073e-006
 439.07001,469.42981, 1.099378e-003,0.30002,60.00000,5.909717e-006
 440.07001,469.23307, 1.105998e-003,0.30000,60.00000,5.912761e-006
 441.07001,469.03545, 1.113056e-003,0.30000,60.00000,5.917876e-006
 442.07001,468.83675, 1.120069e-003,0.30003,60.00000,5.922540e-006
 443.07001,468.63754, 1.127628e-003,0.29999,60.00000,5.929544e-006
 444.07001,468.43823, 1.134926e-003,0.30001,60.00000,5.935334e-006
 445.07001,468.23882, 1.141920e-003,0.29997,60.00000,5.939797e-006
 446.07001,468.03955, 1.149050e-003,0.30001,60.00000,5.945104e-006
 447.07001,467.84105, 1.156164e-003,0.30001,60.00000,5.949880e-006
 448.07001,467.64376, 1.162888e-003,0.29998,60.00000,5.953100e-006
 449.07001,467.44746, 1.170132e-003,0.30000,60.00000,5.958480e-006
 450.07001,467.25165, 1.176751e-003,0.30003,60.00000,5.961239e-006
 451.07001,467.05636, 1.182776e-003,0.30001,60.00000,5.961568e-006
 452.07001,466.86144, 1.189798e-003,0.30003,60.00000,5.965850e-006
 453.07001,466.66681, 1.196089e-003,0.30003,60.00000,5.967275e-006
 454.07001,466.47260, 1.203173e-003,0.30001,60.00000,5.971793e-006
 455.07001,466.27833, 1.210335e-003,0.29999,60.00000,5.976587e-006
 456.07001,466.08401, 1.215496e-003,0.30002,60.00000,5.973361e-006
 457.07001,465.88975, 1.222676e-003,0.29999,60.00000,5.978275e-006
 458.07001,465.69517, 1.229848e-003,0.30000,60.00000,5.982974e-006
 459.07001,465.50033, 1.236508e-003,0.30002,60.00000,5.985719e-006
 460.07001,465.30547, 1.242499e-003,0.30001,60.00000,5.985790e-006
 461.07001,465.11055, 1.249464e-003,0.29997,60.00000,5.989786e-006
 462.07001,464.91546, 1.256697e-003,0.29999,60.00000,5.994661e-006
 463.07001,464.72013, 1.263714e-003,0.29999,60.00000,5.998492e-006
 464.07001,464.52435, 1.270459e-003,0.30000,60.00000,6.001688e-006
 465.07001,464.32828, 1.277523e-003,0.29999,60.00000,6.005809e-006
 466.07001,464.13250, 1.284532e-003,0.29999,60.00000,6.009621e-006
 467.07001,463.93682, 1.290993e-003,0.29996,60.00000,6.011407e-006
 468.07001,463.74119, 1.298113e-003,0.30000,60.00000,6.015698e-006
 469.07001,463.54536, 1.305090e-003,0.29999,60.00000,6.019543e-006
 470.07001,463.34914, 1.312524e-003,0.30003,60.00000,6.024857e-006
 471.07001,463.15318, 1.319776e-003,0.29997,60.00000,6.029592e-006
 472.07001,462.95771, 1.327290e-003,0.30002,60.00000,6.035113e-006
 473.07001,462.76240, 1.334161e-003,0.29998,60.00000,6.038476e-006
 474.07001,462.56673, 1.341637e-003,0.29997,60.00000,6.043821e-006
 475.07001,462.37127, 1.348715e-003,0.30000,60.00000,6.047820e-006
 476.07001,462.17612, 1.356165e-003,0.29999,60.00000,6.053014e-006
 477.07001,461.98082, 1.363594e-003,0.30001,60.00000,6.058086e-006
 478.07001,461.78474, 1.370678e-003,0.30000,60.00000,6.062022e-006
 479.07001,461.58827, 1.378161e-003,0.30002,60.00000,6.067246e-006
 480.07001,461.39147, 1.383607e-003,0.29998,60.00000,6.065001e-006
 481.07001,461.19390, 1.390130e-003,0.29997,60.00000,6.066759e-006
 482.07001,460.99563, 1.397669e-003,0.30000,60.00000,6.072092e-006
 483.07001,460.79706, 1.404926e-003,0.30000,60.00000,6.076466e-006
 484.07001,460.59838, 1.412539e-003,0.30000,60.00000,6.082043e-006
 485.07001,460.40010, 1.419723e-003,0.30000,60.00000,6.086102e-006
 486.07001,460.20251, 1.427129e-003,0.29999,60.00000,6.090731e-006
 487.07001,460.00518, 1.434059e-003,0.29999,60.00000,6.093815e-006
 488.07001,459.80828, 1.441127e-003,0.30001,60.00000,6.097326e-006
 489.07001,459.61206, 1.448191e-003,0.30001,60.00000,6.100788e-006
 490.07001,459.41576, 1.454689e-003,0.29999,60.00000,6.102227e-006
 491.07001,459.21931, 1.461592e-003,0.29998,60.00000,6.105096e-006
 492.07001,459.02298, 1.468506e-003,0.29997,60.00000,6.107987e-006
 493.07001,458.82592, 1.475470e-003,0.30001,60.00000,6.110972e-006
 494.07001,458.62787, 1.482646e-003,0.29995,60.00000,6.114709e-006
 495.07001,458.42930, 1.489603e-003,0.30000,60.00000,6.117647e-006
 496.07001,458.22999, 1.496631e-003,0.29997,60.00000,6.120864e-006
 497.07001,458.03047, 1.504226e-003,0.30002,60.00000,6.126033e-006
 498.07001,457.83130, 1.511877e-003,0.30000,60.00000,6.131289e-006
 499.07001,457.63224, 1.518995e-003,0.29999,60.00000,6.134749e-006
 500.07001,457.43325, 1.525875e-003,0.29999,60.00000,6.137388e-006
 501.07001,457.23493, 1.533058e-003,0.29998,60.00000,6.140896e-006
 502.07001,457.03749, 1.540481e-003,0.29999,60.00000,6.145257e-006
 503.07001,456.84013, 1.547951e-003,0.29998,60.00000,6.149772e-006
 504.07001,456.64261, 1.555015e-003,0.29999,60.00000,6.152916e-006
 505.07001,456.44491, 1.562381e-003,0.29999,60.00000,6.156994e-006
 506.07001,456.24690, 1.569615e-003,0.30001,60.00000,6.160668e-006
 507.07001,456.04835, 1.576904e-003,0.29998,60.00000,6.164445e-006
 508.07001,455.84976, 1.584062e-003,0.30000,60.00000,6.167769e-006
 509.07001,455.65075, 1.590408e-003,0.30000,60.00000,6.168302e-006
 510.07001,455.45104, 1.597349e-003,0.29997,60.00000,6.171005e-006
 511.07001,455.25086, 1.604131e-003,0.29999,60.00000,6.172933e-006
 512.07001,455.05040, 1.611667e-003,0.29999,60.00000,6.177491e-006
 513.07001,454.85021, 1.619247e-003,0.29999,60.00000,6.182119e-006
 514.07001,454.65061, 1.626941e-003,0.30001,60.00000,6.186958e-006
 515.07001,454.45148, 1.634462e-003,0.30003,60.00000,6.191501e-006
 516.07001,454.25252, 1.641645e-003,0.30001,60.00000,6.194701e-006
 517.07001,454.05383, 1.649261e-003,0.29999,60.00000,6.199398e-006
 518.07001,453.85569, 1.656765e-003,0.30002,60.00000,6.203570e-006
 519.07001,453.65798, 1.664376e-003,0.30000,60.00000,6.208094e-006
 520.07001,453.46020, 1.671551e-003,0.29999,60.00000,6.211157e-006
 521.07001,453.26224, 1.678710e-003,0.30004,60.00000,6.214267e-006
 522.07001,453.06387, 1.686013e-003,0.29999,60.00000,6.217728e-006
 523.07001,452.86494, 1.693020e-003,0.29996,60.00000,6.220296e-006
 524.07001,452.66566, 1.700252e-003,0.29997,60.00000,6.223461e-006
 525.07001,452.46607, 1.707559e-003,0.30000,60.00000,6.226863e-006
 526.07001,452.26577, 1.714761e-003,0.30000,60.00000,6.229954e-006
 527.07001,452.06538, 1.721888e-003,0.30000,60.00000,6.232885e-006
 528.07001,451.86574, 1.728789e-003,0.29999,60.00000,6.234982e-006
 529.07001,451.66714, 1.736000e-003,0.30000,60.00000,6.238036e-006
 530.07001,451.46981, 1.743354e-003,0.30001,60.00000,6.241488e-006
 531.07001,451.27410, 1.750180e-003,0.30002,60.00000,6.243385e-006
 532.07001,451.07947, 1.757453e-003,0.30000,60.00000,6.246532e-006
 533.07001,450.88534, 1.764626e-003,0.29999,60.00000,6.249342e-006
 534.07001,450.69093, 1.772007e-003,0.29999,60.00000,6.252855e-006
 535.07001,450.49538, 1.779097e-003,0.30000,60.00000,6.255445e-006
 536.07001,450.29867, 1.786855e-003,0.30000,60.00000,6.260001e-006
 537.07001,450.10127, 1.794240e-003,0.30000,60.00000,6.263480e-006
 538.07001,449.90295, 1.801934e-003,0.29996,60.00000,6.267794e-006
 539.07001,449.70345, 1.809358e-003,0.29999,60.00000,6.271357e-006
 540.07001,449.50332, 1.816617e-003,0.29998,60.00000,6.274356e-006
 541.07001,449.30324, 1.824354e-003,0.30000,60.00000,6.278795e-006
 542.07001,449.10305, 1.832151e-003,0.30001,60.00000,6.283373e-006
 543.07001,448.90331, 1.840027e-003,0.30000,60.00000,6.288148e-006
 544.07001,448.70471, 1.847961e-003,0.30004,60.00000,6.293137e-006
 545.07001,448.50695, 1.855911e-003,0.29999,60.00000,6.298041e-006
 546.07001,448.30963, 1.863924e-003,0.29998,60.00000,6.303031e-006
 547.07001,448.11215, 1.871840e-003,0.30000,60.00000,6.307862e-006
 548.07001,447.91434, 1.876508e-003,0.30000,60.00000,6.303086e-006
 549.07001,447.71622, 1.884361e-003,0.29998,60.00000,6.307548e-006
 550.07001,447.51771, 1.892057e-003,0.30000,60.00000,6.311765e-006
 551.07001,447.31867, 1.899074e-003,0.30000,60.00000,6.313790e-006
 552.07001,447.11952, 1.907093e-003,0.30001,60.00000,6.318769e-006
 553.07001,446.91965, 1.914299e-003,0.30001,60.00000,6.321246e-006
 554.07001,446.71864, 1.919957e-003,0.30002,60.00000,6.319363e-006
 555.07001,446.51712, 1.927059e-003,0.30001,60.00000,6.321652e-006
 556.07001,446.31548, 1.934590e-003,0.29999,60.00000,6.325221e-006
 557.07001,446.11364, 1.942472e-003,0.30000,60.00000,6.329758e-006
 558.07001,445.91194, 1.950213e-003,0.29999,60.00000,6.333706e-006
 559.07001,445.71054, 1.957960e-003,0.30000,60.00000,6.337748e-006
 560.07001,445.50921, 1.965368e-003,0.30004,60.00000,6.340775e-006
 561.07001,445.30845, 1.971397e-003,0.30000,60.00000,6.339908e-006
 562.07001,445.10832, 1.978961e-003,0.29999,60.00000,6.343402e-006
 563.07001,444.90879, 1.986299e-003,0.29999,60.00000,6.346279e-006
 564.07001,444.70948, 1.993394e-003,0.30002,60.00000,6.348322e-006
 565.07001,444.51014, 2.000642e-003,0.30002,60.00000,6.350805e-006
 566.07001,444.30972, 2.007973e-003,0.29999,60.00000,6.353621e-006
 567.07001,444.10820, 2.013831e-003,0.30000,60.00000,6.352282e-006
 568.07001,443.90645, 2.020994e-003,0.30000,60.00000,6.354495e-006
 569.07001,443.70434, 2.028401e-003,0.29999,60.00000,6.357397e-006
 570.07001,443.50203, 2.035948e-003,0.29998,60.00000,6.360769e-006
 571.07001,443.29959, 2.043657e-003,0.30001,60.00000,6.364506e-006
 572.07001,443.09679, 2.051485e-003,0.29998,60.00000,6.368506e-006
 573.07001,442.89393, 2.059510e-003,0.29998,60.00000,6.372999e-006
 574.07001,442.69215, 2.067778e-003,0.30000,60.00000,6.378304e-006
 575.07001,442.49125, 2.075851e-003,0.30000,60.00000,6.382942e-006
 576.07001,442.29106, 2.083790e-003,0.29997,60.00000,6.387141e-006
 577.07001,442.09093, 2.091965e-003,0.29999,60.00000,6.392051e-006
 578.07001,441.88989, 2.099628e-003,0.30001,60.00000,6.395440e-006
 579.07001,441.68809, 2.107492e-003,0.29998,60.00000,6.399474e-006
 580.07001,441.48587, 2.114163e-003,0.30000,60.00000,6.400195e-006
 581.07001,441.28330, 2.121175e-003,0.30001,60.00000,6.401875e-006
 582.07001,441.08008, 2.129466e-003,0.30000,60.00000,6.406905e-006
 583.07001,440.87617, 2.137737e-003,0.30000,60.00000,6.411863e-006
 584.07001,440.67179, 2.145580e-003,0.29999,60.00000,6.415745e-006
 585.07001,440.46725, 2.153483e-003,0.30002,60.00000,6.419770e-006
 586.07001,440.26264, 2.161702e-003,0.30000,60.00000,6.424525e-006
 587.07001,440.05838, 2.169783e-003,0.30000,60.00000,6.428875e-006
 588.07001,439.85547, 2.177743e-003,0.29997,60.00000,6.432996e-006
 589.07001,439.65406, 2.185636e-003,0.30002,60.00000,6.436845e-006
 590.07001,439.45403, 2.194076e-003,0.30001,60.00000,6.442088e-006
 591.07001,439.25519, 2.202264e-003,0.29999,60.00000,6.446589e-006
 592.07001,439.05683, 2.210349e-003,0.30000,60.00000,6.450892e-006
 593.07001,438.85893, 2.218342e-003,0.29995,60.00000,6.454983e-006
 594.07001,438.66153, 2.226501e-003,0.30002,60.00000,6.459411e-006
 595.07001,438.46409, 2.234425e-003,0.29996,60.00000,6.463230e-006
 596.07001,438.26610, 2.241747e-003,0.30002,60.00000,6.465366e-006
 597.07001,438.06771, 2.249425e-003,0.29997,60.00000,6.468571e-006
 598.07001,437.86880, 2.256023e-003,0.29999,60.00000,6.468920e-006
 599.07001,437.66969, 2.262796e-003,0.29999,60.00000,6.469732e-006
 600.07001,437.47031, 2.270461e-003,0.29999,60.00000,6.472730e-006
 601.07001,437.27075, 2.278340e-003,0.30000,60.00000,6.476316e-006
 602.07001,437.07123, 2.286040e-003,0.29999,60.00000,6.479458e-006
 603.07001,436.87163, 2.293411e-003,0.29999,60.00000,6.481793e-006
 604.07001,436.67192, 2.301113e-003,0.29997,60.00000,6.484853e-006
 605.07001,436.47221, 2.308753e-003,0.29998,60.00000,6.487757e-006
 606.07001,436.27244, 2.316208e-003,0.30002,60.00000,6.490263e-006
 607.07001,436.07285, 2.323881e-003,0.30000,60.00000,6.493157e-006
 608.07001,435.87346, 2.330980e-003,0.30000,60.00000,6.494690e-006
 609.07001,435.67387, 2.337912e-003,0.30000,60.00000,6.495715e-006
 610.07001,435.47354, 2.345641e-003,0.30003,60.00000,6.498877e-006
 611.07001,435.27197, 2.353342e-003,0.29998,60.00000,6.501763e-006
 612.07001,435.06946, 2.360609e-003,0.30001,60.00000,6.503762e-006
 613.07001,434.86592, 2.369002e-003,0.30000,60.00000,6.508400e-006
 614.07001,434.66236, 2.377309e-003,0.30001,60.00000,6.512870e-006
 615.07001,434.45908, 2.385448e-003,0.29999,60.00000,6.516921e-006
 616.07001,434.25606, 2.393586e-003,0.29998,60.00000,6.520941e-006
 617.07001,434.05315, 2.401211e-003,0.30000,60.00000,6.523630e-006
 618.07001,433.85033, 2.401669e-003,0.29999,60.00000,6.508814e-006
 619.07001,433.64725, 2.409888e-003,0.30000,60.00000,6.512961e-006
 620.07001,433.44392, 2.418221e-003,0.30001,60.00000,6.517413e-006
 621.07001,433.24011, 2.426920e-003,0.29999,60.00000,6.522687e-006
 622.07001,433.03592, 2.435959e-003,0.30001,60.00000,6.528825e-006
 623.07001,432.83212, 2.444657e-003,0.29999,60.00000,6.534057e-006
 624.07001,432.62874, 2.453544e-003,0.30000,60.00000,6.539748e-006
 625.07001,432.42634, 2.462275e-003,0.30001,60.00000,6.545020e-006
 626.07001,432.22490, 2.470834e-003,0.30000,60.00000,6.549929e-006
 627.07001,432.02406, 2.478556e-003,0.30002,60.00000,6.552703e-006
 628.07001,431.82412, 2.487263e-003,0.30002,60.00000,6.557835e-006
 629.07001,431.62456, 2.496456e-003,0.30000,60.00000,6.564111e-006
 630.07001,431.42503, 2.505170e-003,0.29998,60.00000,6.569212e-006
 631.07001,431.22557, 2.513748e-003,0.30001,60.00000,6.573974e-006
 632.07001,431.02603, 2.522570e-003,0.29999,60.00000,6.579279e-006
 633.07001,430.82626, 2.530865e-003,0.29998,60.00000,6.583419e-006
 634.07001,430.62614, 2.539214e-003,0.29999,60.00000,6.587552e-006
 635.07001,430.42570, 2.547683e-003,0.29999,60.00000,6.591985e-006
 636.07001,430.22517, 2.556245e-003,0.30001,60.00000,6.596602e-006
 637.07001,430.02464, 2.564478e-003,0.29999,60.00000,6.600415e-006
 638.07001,429.82366, 2.572719e-003,0.29999,60.00000,6.604168e-006
 639.07001,429.62201, 2.580826e-003,0.30000,60.00000,6.607793e-006
 640.07001,429.42043, 2.589033e-003,0.30003,60.00000,6.611531e-006
 641.07001,429.21900, 2.597428e-003,0.30000,60.00000,6.615607e-006
 642.07001,429.01703, 2.605364e-003,0.30001,60.00000,6.618684e-006
 643.07001,428.81435, 2.613165e-003,0.30001,60.00000,6.621369e-006
 644.07001,428.61098, 2.621434e-003,0.30001,60.00000,6.625201e-006
 645.07001,428.40747, 2.628749e-003,0.30000,60.00000,6.626835e-006
 646.07001,428.20445, 2.637429e-003,0.30001,60.00000,6.631526e-006
 647.07001,428.00167, 2.645870e-003,0.29998,60.00000,6.635610e-006
 648.07001,427.79900, 2.654651e-003,0.29998,60.00000,6.640488e-006
 649.07001,427.59646, 2.663009e-003,0.30000,60.00000,6.644512e-006
 650.07001,427.39462, 2.671623e-003,0.30000,60.00000,6.648924e-006
 651.07001,427.19404, 2.679885e-003,0.30000,60.00000,6.652573e-006
 652.07001,426.99428, 2.688676e-003,0.30000,60.00000,6.657486e-006
 653.07001,426.79552, 2.697432e-003,0.30002,60.00000,6.662138e-006
 654.07001,426.59751, 2.706085e-003,0.29999,60.00000,6.666647e-006
 655.07001,426.39952, 2.714490e-003,0.30000,60.00000,6.670559e-006
 656.07001,426.20103, 2.721822e-003,0.30001,60.00000,6.671987e-006
 657.07001,426.00205, 2.729322e-003,0.29999,60.00000,6.673829e-006
 658.07001,425.80284, 2.737361e-003,0.30001,60.00000,6.676920e-006
 659.07001,425.60350, 2.745911e-003,0.30000,60.00000,6.681107e-006
 660.07001,425.40408, 2.754576e-003,0.29999,60.00000,6.685508e-006
 661.07001,425.20438, 2.763179e-003,0.30002,60.00000,6.689751e-006
 662.07001,425.00438, 2.771704e-003,0.30001,60.00000,6.693729e-006
 663.07001,424.80408, 2.780212e-003,0.29997,60.00000,6.697818e-006
 664.07001,424.60317, 2.788400e-003,0.30001,60.00000,6.701087e-006
 665.07001,424.40247, 2.796069e-003,0.29999,60.00000,6.703250e-006
 666.07001,424.20197, 2.804490e-003,0.30001,60.00000,6.706985e-006
 667.07001,424.00161, 2.813006e-003,0.30000,60.00000,6.710959e-006
 668.07001,423.80171, 2.821589e-003,0.30001,60.00000,6.715034e-006
 669.07001,423.60258, 2.830173e-003,0.29999,60.00000,6.719108e-006
 670.07001,423.40370, 2.838629e-003,0.30001,60.00000,6.722926e-006
 671.07001,423.20502, 2.846863e-003,0.30000,60.00000,6.726171e-006
 672.07001,423.00648, 2.855116e-003,0.30000,60.00000,6.729426e-006
 673.07001,422.80747, 2.863614e-003,0.29997,60.00000,6.733270e-006
 674.07001,422.60827, 2.872002e-003,0.30002,60.00000,6.736894e-006
 675.07001,422.40852, 2.880559e-003,0.30001,60.00000,6.740709e-006
 676.07001,422.20787, 2.888669e-003,0.30000,60.00000,6.743719e-006
 677.07001,422.00647, 2.897155e-003,0.29998,60.00000,6.747426e-006
 678.07001,421.80475, 2.905644e-003,0.30002,60.00000,6.751159e-006
 679.07001,421.60312, 2.913976e-003,0.29997,60.00000,6.754474e-006
 680.07001,421.40175, 2.922726e-003,0.29997,60.00000,6.758742e-006
 681.07001,421.20078, 2.931473e-003,0.30000,60.00000,6.762960e-006
 682.07001,421.00079, 2.940787e-003,0.30000,60.00000,6.768357e-006
 683.07001,420.80136, 2.948232e-003,0.30000,60.00000,6.769846e-006
 684.07001,420.60196, 2.955684e-003,0.30000,60.00000,6.771273e-006
 685.07001,420.40318, 2.965163e-003,0.29999,60.00000,6.776990e-006
 686.07001,420.20573, 2.974513e-003,0.29999,60.00000,6.782354e-006
 687.07001,420.00891, 2.983830e-003,0.29999,60.00000,6.787667e-006
 688.07001,419.81188, 2.993073e-003,0.29998,60.00000,6.792857e-006
 689.07001,419.61440, 3.002341e-003,0.30001,60.00000,6.797931e-006
 690.07001,419.41593, 3.011365e-003,0.30000,60.00000,6.802542e-006
 691.07001,419.21665, 3.020754e-003,0.30001,60.00000,6.807984e-006
 692.07001,419.01711, 3.029714e-003,0.29999,60.00000,6.812488e-006
 693.07001,418.81723, 3.038586e-003,0.29998,60.00000,6.816711e-006
 694.07001,418.61704, 3.047625e-003,0.30000,60.00000,6.821327e-006
 695.07001,418.41559, 3.049705e-003,0.29999,60.00000,6.811534e-006
 696.07001,418.21384, 3.058693e-003,0.30001,60.00000,6.816028e-006
 697.07001,418.01277, 3.066808e-003,0.29999,60.00000,6.818704e-006
 698.07001,417.81145, 3.068513e-003,0.30000,60.00000,6.808195e-006
 699.07001,417.60922, 3.077632e-003,0.30000,60.00000,6.812941e-006
 700.07001,417.40637, 3.086619e-003,0.30000,60.00000,6.817329e-006
 701.07001,417.20377, 3.095709e-003,0.30002,60.00000,6.822026e-006
 702.07001,417.00133, 3.104910e-003,0.29998,60.00000,6.826810e-006
 703.07001,416.79947, 3.113785e-003,0.30000,60.00000,6.830996e-006
 704.07001,416.59788, 3.122799e-003,0.29998,60.00000,6.835410e-006
 705.07001,416.39632, 3.131656e-003,0.29999,60.00000,6.839457e-006
 706.07001,416.19508, 3.140516e-003,0.30001,60.00000,6.843527e-006
 707.07001,415.99382, 3.148780e-003,0.30001,60.00000,6.846446e-006
 708.07001,415.79234, 3.157186e-003,0.30000,60.00000,6.849544e-006
 709.07001,415.59062, 3.165905e-003,0.29998,60.00000,6.853298e-006
 710.07001,415.38870, 3.174497e-003,0.29999,60.00000,6.856716e-006
 711.07001,415.18709, 3.183173e-003,0.30001,60.00000,6.860368e-006
 712.07001,414.98581, 3.191365e-003,0.30002,60.00000,6.863045e-006
 713.07001,414.78434, 3.200274e-003,0.29998,60.00000,6.867112e-006
 714.07001,414.58258, 3.209488e-003,0.30001,60.00000,6.871746e-006
 715.07001,414.38123, 3.218969e-003,0.29998,60.00000,6.876926e-006
 716.07001,414.18006, 3.228341e-003,0.30001,60.00000,6.881874e-006
 717.07001,413.97865, 3.240253e-003,0.30001,60.00000,6.891835e-006
 718.07001,413.77704, 3.249626e-003,0.30000,60.00000,6.896668e-006
 719.07001,413.57543, 3.258783e-003,0.29999,60.00000,6.901109e-006
 720.07001,413.37422, 3.267737e-003,0.30002,60.00000,6.905144e-006
 721.07001,413.17330, 3.274447e-003,0.29997,60.00000,6.904735e-006
 722.07001,412.97249, 3.283797e-003,0.30004,60.00000,6.909539e-006
 723.07001,412.77222, 3.291989e-003,0.30001,60.00000,6.911982e-006
 724.07001,412.57277, 3.299500e-003,0.30001,60.00000,6.913220e-006
 725.07001,412.37386, 3.308722e-003,0.30000,60.00000,6.917702e-006
 726.07001,412.17530, 3.318090e-003,0.29998,60.00000,6.922405e-006
 727.07001,411.97699, 3.327456e-003,0.30000,60.00000,6.927163e-006
 728.07001,411.77893, 3.336793e-003,0.29997,60.00000,6.931829e-006
 729.07001,411.58092, 3.345881e-003,0.30001,60.00000,6.935954e-006
 730.07001,411.38293, 3.354725e-003,0.29997,60.00000,6.939625e-006
 731.07001,411.18484, 3.363677e-003,0.29999,60.00000,6.943473e-006
 732.07001,410.98662, 3.372024e-003,0.29997,60.00000,6.946148e-006
 733.07001,410.78791, 3.380859e-003,0.30000,60.00000,6.949725e-006
 734.07001,410.58834, 3.389687e-003,0.29999,60.00000,6.953394e-006
 735.07001,410.38800, 3.399061e-003,0.29998,60.00000,6.957914e-006
 736.07001,410.18718, 3.408038e-003,0.29999,60.00000,6.961804e-006
 737.07001,409.98615, 3.417241e-003,0.29998,60.00000,6.966067e-006
 738.07001,409.78525, 3.426385e-003,0.30002,60.00000,6.970213e-006
 739.07001,409.58452, 3.435431e-003,0.29999,60.00000,6.974103e-006
 740.07001,409.38383, 3.444216e-003,0.29999,60.00000,6.977539e-006
 741.07001,409.18352, 3.453166e-003,0.30000,60.00000,6.981232e-006
 742.07001,408.98411, 3.462004e-003,0.29999,60.00000,6.984784e-006
 743.07001,408.78525, 3.470711e-003,0.29998,60.00000,6.988008e-006
 744.07001,408.58669, 3.479497e-003,0.30000,60.00000,6.991350e-006
 745.07001,408.38786, 3.488345e-003,0.30001,60.00000,6.994813e-006
 746.07001,408.18823, 3.497128e-003,0.30000,60.00000,6.998114e-006
 747.07001,407.98792, 3.506366e-003,0.30001,60.00000,7.002335e-006
 748.07001,407.78735, 3.515769e-003,0.29999,60.00000,7.006798e-006
 749.07001,407.58681, 3.525208e-003,0.30001,60.00000,7.011302e-006
 750.07001,407.38616, 3.534645e-003,0.29999,60.00000,7.015820e-006
 751.07001,407.18522, 3.544193e-003,0.30000,60.00000,7.020435e-006
 752.07001,406.98364, 3.553833e-003,0.30000,60.00000,7.025322e-006
 753.07001,406.78187, 3.563648e-003,0.30002,60.00000,7.030397e-006
 754.07001,406.58051, 3.573044e-003,0.30000,60.00000,7.034761e-006
 755.07001,406.37893, 3.582459e-003,0.29998,60.00000,7.039130e-006
 756.07001,406.17774, 3.592041e-003,0.30001,60.00000,7.043814e-006
 757.07001,405.97679, 3.601983e-003,0.29997,60.00000,7.049072e-006
 758.07001,405.77603, 3.611758e-003,0.30001,60.00000,7.054098e-006
 759.07001,405.57539, 3.621480e-003,0.30000,60.00000,7.058921e-006
 760.07001,405.37411, 3.631386e-003,0.30002,60.00000,7.064077e-006
 761.07001,405.17246, 3.641044e-003,0.29997,60.00000,7.068844e-006
 762.07001,404.97060, 3.650809e-003,0.29999,60.00000,7.073730e-006
 763.07001,404.76868, 3.660675e-003,0.30000,60.00000,7.078712e-006
 764.07001,404.56705, 3.670389e-003,0.29999,60.00000,7.083505e-006
 765.07001,404.36545, 3.678795e-003,0.30000,60.00000,7.085850e-006
 766.07001,404.16360, 3.688412e-003,0.29996,60.00000,7.090461e-006
 767.07001,403.96124, 3.698154e-003,0.29999,60.00000,7.095180e-006
 768.07001,403.75857, 3.707563e-003,0.30003,60.00000,7.099343e-006
 769.07001,403.55532, 3.717083e-003,0.30000,60.00000,7.103662e-006
 770.07001,403.35189, 3.726647e-003,0.30000,60.00000,7.108105e-006
 771.07001,403.14885, 3.736156e-003,0.30000,60.00000,7.112379e-006
 772.07001,402.94604, 3.745282e-003,0.29996,60.00000,7.115914e-006
 773.07001,402.74327, 3.754675e-003,0.29998,60.00000,7.119975e-006
 774.07001,402.54028, 3.763518e-003,0.29999,60.00000,7.123072e-006
 775.07001,402.33815, 3.773494e-003,0.30002,60.00000,7.128101e-006
 776.07001,402.13701, 3.783105e-003,0.30000,60.00000,7.132444e-006
 777.07001,401.93570, 3.792822e-003,0.30000,60.00000,7.137003e-006
 778.07001,401.73340, 3.802067e-003,0.30000,60.00000,7.140670e-006
 779.07001,401.53063, 3.811529e-003,0.29999,60.00000,7.144818e-006
 780.07001,401.32793, 3.820148e-003,0.29998,60.00000,7.147409e-006
 781.07001,401.12546, 3.829706e-003,0.30000,60.00000,7.151645e-006
 782.07001,400.92387, 3.839053e-003,0.30000,60.00000,7.155452e-006
 783.07001,400.72318, 3.848348e-003,0.30001,60.00000,7.159210e-006
 784.07001,400.52270, 3.857681e-003,0.30001,60.00000,7.162989e-006
 785.07001,400.32249, 3.865972e-003,0.29999,60.00000,7.164950e-006
 786.07001,400.12284, 3.872817e-003,0.29998,60.00000,7.164409e-006
 787.07001,399.92332, 3.882534e-003,0.29998,60.00000,7.168753e-006
 788.07001,399.72391, 3.891036e-003,0.29998,60.00000,7.171136e-006
 789.07001,399.52450, 3.900570e-003,0.29997,60.00000,7.175198e-006
 790.07001,399.32519, 3.910249e-003,0.30001,60.00000,7.179483e-006
 791.07001,399.12595, 3.919596e-003,0.29996,60.00000,7.183211e-006
 792.07001,398.92645, 3.929259e-003,0.30000,60.00000,7.187494e-006
 793.07001,398.72664, 3.938454e-003,0.30000,60.00000,7.190979e-006
 794.07001,398.52680, 3.947966e-003,0.29998,60.00000,7.194918e-006
 795.07001,398.32718, 3.957175e-003,0.30001,60.00000,7.198375e-006
 796.07001,398.12812, 3.964969e-003,0.30000,60.00000,7.199387e-006
 797.07001,397.92943, 3.974571e-003,0.30000,60.00000,7.203453e-006
 798.07001,397.73071, 3.983805e-003,0.29999,60.00000,7.206909e-006
 799.07001,397.53174, 3.993139e-003,0.30000,60.00000,7.210532e-006
 800.07001,397.33193, 4.002443e-003,0.29999,60.00000,7.214021e-006
 801.07001,397.13123, 4.011180e-003,0.29998,60.00000,7.216635e-006
 802.07001,396.93026, 4.020368e-003,0.29998,60.00000,7.219934e-006
 803.07001,396.72967, 4.029957e-003,0.30000,60.00000,7.223967e-006
 804.07001,396.52929, 4.039280e-003,0.30000,60.00000,7.227514e-006
 805.07001,396.32900, 4.049101e-003,0.29998,60.00000,7.231807e-006
 806.07001,396.12872, 4.059106e-003,0.30000,60.00000,7.236442e-006
 807.07001,395.92843, 4.068548e-003,0.30000,60.00000,7.240202e-006
 808.07001,395.72816, 4.078060e-003,0.30000,60.00000,7.244044e-006
 809.07001,395.52672, 4.087708e-003,0.29998,60.00000,7.248012e-006
 810.07001,395.32381, 4.097453e-003,0.29999,60.00000,7.252169e-006
 811.07001,395.11961, 4.107242e-003,0.29999,60.00000,7.256369e-006
 812.07001,394.91456, 4.116753e-003,0.30002,60.00000,7.260113e-006
 813.07001,394.71019, 4.126555e-003,0.29998,60.00000,7.264346e-006
 814.07001,394.50696, 4.136065e-003,0.30000,60.00000,7.268058e-006
 815.07001,394.30409, 4.145625e-003,0.30002,60.00000,7.271902e-006
 816.07001,394.10095, 4.155572e-003,0.29999,60.00000,7.276290e-006
 817.07001,393.89836, 4.165100e-003,0.30000,60.00000,7.280032e-006
 818.07001,393.69688, 4.173658e-003,0.29998,60.00000,7.282105e-006
 819.07001,393.49617, 4.183261e-003,0.30000,60.00000,7.285936e-006
 820.07001,393.29576, 4.192616e-003,0.30000,60.00000,7.289328e-006
 821.07001,393.09528, 4.202182e-003,0.30001,60.00000,7.293021e-006
 822.07001,392.89426, 4.211597e-003,0.30001,60.00000,7.296430e-006
 823.07001,392.69270, 4.220943e-003,0.30001,60.00000,7.299830e-006
 824.07001,392.49064, 4.230781e-003,0.29997,60.00000,7.303932e-006
 825.07001,392.28802, 4.240315e-003,0.29999,60.00000,7.307521e-006
 826.07001,392.08515, 4.250057e-003,0.29999,60.00000,7.311534e-006
 827.07001,391.88287, 4.259112e-003,0.30000,60.00000,7.314392e-006
 828.07001,391.68131, 4.268604e-003,0.30000,60.00000,7.317908e-006
 829.07001,391.48000, 4.278127e-003,0.30001,60.00000,7.321445e-006
 830.07001,391.27868, 4.287698e-003,0.29996,60.00000,7.325060e-006
 831.07001,391.07743, 4.297014e-003,0.30000,60.00000,7.328314e-006
 832.07001,390.87603, 4.306310e-003,0.29999,60.00000,7.331484e-006
 833.07001,390.67418, 4.316070e-003,0.30000,60.00000,7.335370e-006
 834.07001,390.47242, 4.325922e-003,0.29999,60.00000,7.339349e-006
 835.07001,390.27063, 4.335615e-003,0.30000,60.00000,7.343159e-006
 836.07001,390.06879, 4.345389e-003,0.30000,60.00000,7.347030e-006
 837.07001,389.86728, 4.355175e-003,0.30001,60.00000,7.350921e-006
 838.07001,389.66622, 4.364913e-003,0.29999,60.00000,7.354721e-006
 839.07001,389.46576, 4.374549e-003,0.30002,60.00000,7.358376e-006
 840.07001,389.26564, 4.384242e-003,0.30001,60.00000,7.362046e-006
 841.07001,389.06542, 4.393919e-003,0.30000,60.00000,7.365712e-006
 842.07001,388.86511, 4.403781e-003,0.30000,60.00000,7.369702e-006
 843.07001,388.66485, 4.413387e-003,0.29999,60.00000,7.373169e-006
 844.07001,388.46419, 4.423336e-003,0.29999,60.00000,7.377233e-006
 845.07001,388.26332, 4.432768e-003,0.30001,60.00000,7.380498e-006
 846.07001,388.06260, 4.442818e-003,0.30003,60.00000,7.384642e-006
 847.07001,387.86235, 4.452583e-003,0.30001,60.00000,7.388468e-006
 848.07001,387.66274, 4.462413e-003,0.29999,60.00000,7.392248e-006
 849.07001,387.46398, 4.472348e-003,0.29999,60.00000,7.396227e-006
 850.07001,387.26561, 4.481714e-003,0.30001,60.00000,7.399361e-006
 851.07001,387.06727, 4.491281e-003,0.29999,60.00000,7.402705e-006
 852.07001,386.86959, 4.501061e-003,0.30000,60.00000,7.406400e-006
 853.07001,386.67206, 4.510556e-003,0.30004,60.00000,7.409652e-006
 854.07001,386.47392, 4.520151e-003,0.30000,60.00000,7.413025e-006
 855.07001,386.27543, 4.529574e-003,0.30000,60.00000,7.416177e-006
 856.07001,386.07662, 4.539164e-003,0.30002,60.00000,7.419505e-006
 857.07001,385.87736, 4.548853e-003,0.30000,60.00000,7.423025e-006
 858.07001,385.67798, 4.558359e-003,0.30001,60.00000,7.426213e-006
 859.07001,385.47813, 4.567864e-003,0.29999,60.00000,7.429471e-006
 860.07001,385.27730, 4.577746e-003,0.30001,60.00000,7.433193e-006
 861.07001,385.07533, 4.588107e-003,0.30000,60.00000,7.437698e-006
 862.07001,384.87211, 4.597956e-003,0.29999,60.00000,7.441397e-006
 863.07001,384.66828, 4.607937e-003,0.30002,60.00000,7.445338e-006
 864.07001,384.46372, 4.617799e-003,0.30001,60.00000,7.448967e-006
 865.07001,384.25907, 4.627610e-003,0.29999,60.00000,7.452564e-006
 866.07001,384.05533, 4.637279e-003,0.30001,60.00000,7.456000e-006
 867.07001,383.85273, 4.644993e-003,0.29999,60.00000,7.456448e-006
 868.07001,383.65109, 4.654536e-003,0.29999,60.00000,7.459548e-006
 869.07001,383.45015, 4.664594e-003,0.29997,60.00000,7.463494e-006
 870.07001,383.24984, 4.674959e-003,0.30000,60.00000,7.467862e-006
 871.07001,383.04988, 4.685194e-003,0.30000,60.00000,7.472072e-006
 872.07001,382.84932, 4.695456e-003,0.30000,60.00000,7.476278e-006
 873.07001,382.64865, 4.705698e-003,0.30001,60.00000,7.480477e-006
 874.07001,382.44799, 4.715824e-003,0.30000,60.00000,7.484426e-006
 875.07001,382.24621, 4.725898e-003,0.30001,60.00000,7.488316e-006
 876.07001,382.04333, 4.735672e-003,0.30000,60.00000,7.491775e-006
 877.07001,381.83994, 4.746080e-003,0.30000,60.00000,7.496125e-006
 878.07001,381.63652, 4.756267e-003,0.30000,60.00000,7.500197e-006
 879.07001,381.43317, 4.766734e-003,0.30001,60.00000,7.504594e-006
 880.07001,381.22972, 4.777236e-003,0.29999,60.00000,7.509079e-006
 881.07001,381.02701, 4.787895e-003,0.29999,60.00000,7.513771e-006
 882.07001,380.82512, 4.798459e-003,0.30001,60.00000,7.518249e-006
 883.07001,380.62299, 4.808935e-003,0.29998,60.00000,7.522708e-006
 884.07001,380.42054, 4.819054e-003,0.30003,60.00000,7.526538e-006
 885.07001,380.21817, 4.829524e-003,0.30000,60.00000,7.530897e-006
 886.07001,380.01597, 4.839391e-003,0.29998,60.00000,7.534384e-006
 887.07001,379.81349, 4.849639e-003,0.30000,60.00000,7.538348e-006
 888.07001,379.61070, 4.860307e-003,0.30002,60.00000,7.542998e-006
 889.07001,379.40814, 4.870347e-003,0.30001,60.00000,7.546714e-006
 890.07001,379.20476, 4.880583e-003,0.29999,60.00000,7.550574e-006
 891.07001,379.00020, 4.890725e-003,0.30001,60.00000,7.554438e-006
 892.07001,378.79548, 4.900884e-003,0.29996,60.00000,7.558197e-006
 893.07001,378.59093, 4.910965e-003,0.30001,60.00000,7.561960e-006
 894.07001,378.38696, 4.921075e-003,0.30000,60.00000,7.565669e-006
 895.07001,378.18461, 4.931337e-003,0.29999,60.00000,7.569595e-006
 896.07001,377.98390, 4.941572e-003,0.29997,60.00000,7.573503e-006
 897.07001,377.78439, 4.951992e-003,0.29998,60.00000,7.577611e-006
 898.07001,377.58554, 4.962077e-003,0.29999,60.00000,7.581247e-006
 899.07001,377.38718, 4.972060e-003,0.29999,60.00000,7.584705e-006
 900.07001,377.18926, 4.982212e-003,0.29999,60.00000,7.588484e-006
 901.07001,376.98987, 4.992302e-003,0.29997,60.00000,7.592089e-006
 902.07001,376.78942, 5.002970e-003,0.30001,60.00000,7.596488e-006
 903.07001,376.59028, 5.013538e-003,0.29999,60.00000,7.600823e-006
 904.07001,376.39245, 5.023901e-003,0.30000,60.00000,7.604768e-006
 905.07001,376.19487, 5.034071e-003,0.30001,60.00000,7.608519e-006
 906.07001,375.99673, 5.044579e-003,0.30002,60.00000,7.612651e-006
 907.07001,375.79899, 5.054986e-003,0.29999,60.00000,7.616731e-006
 908.07001,375.60231, 5.065252e-003,0.30001,60.00000,7.620495e-006
 909.07001,375.40665, 5.075846e-003,0.30000,60.00000,7.624691e-006
 910.07001,375.21144, 5.085849e-003,0.29998,60.00000,7.628100e-006
 911.07001,375.01567, 5.096177e-003,0.29998,60.00000,7.631937e-006
 912.07001,374.81926, 5.106936e-003,0.29998,60.00000,7.636367e-006
 913.07001,374.62270, 5.117924e-003,0.30001,60.00000,7.641186e-006
 914.07001,374.42587, 5.128596e-003,0.29999,60.00000,7.645440e-006
 915.07001,374.22848, 5.139289e-003,0.30002,60.00000,7.649838e-006
 916.07001,374.03009, 5.149902e-003,0.29999,60.00000,7.654007e-006
 917.07001,373.83084, 5.160752e-003,0.30001,60.00000,7.658533e-006
 918.07001,373.63095, 5.171022e-003,0.30001,60.00000,7.662192e-006
 919.07001,373.43036, 5.181468e-003,0.30001,60.00000,7.666130e-006
 920.07001,373.22792, 5.191547e-003,0.30000,60.00000,7.669507e-006
 921.07001,373.02289, 5.201501e-003,0.30001,60.00000,7.672787e-006
 922.07001,372.81589, 5.211581e-003,0.30002,60.00000,7.676120e-006
 923.07001,372.60765, 5.221857e-003,0.29999,60.00000,7.679799e-006
 924.07001,372.39976, 5.232103e-003,0.29999,60.00000,7.683378e-006
 925.07001,372.19316, 5.242333e-003,0.30001,60.00000,7.686989e-006
 926.07001,371.98731, 5.252707e-003,0.30000,60.00000,7.690695e-006
 927.07001,371.78282, 5.263237e-003,0.30001,60.00000,7.694687e-006
 928.07001,371.58034, 5.273781e-003,0.30000,60.00000,7.698664e-006
 929.07001,371.37945, 5.284111e-003,0.30000,60.00000,7.702309e-006
 930.07001,371.17959, 5.294800e-003,0.29997,60.00000,7.706420e-006
 931.07001,370.98065, 5.305402e-003,0.30000,60.00000,7.710484e-006
 932.07001,370.78228, 5.316107e-003,0.29997,60.00000,7.714585e-006
 933.07001,370.58393, 5.326530e-003,0.30002,60.00000,7.718349e-006
 934.07001,370.38593, 5.337378e-003,0.30000,60.00000,7.722663e-006
 935.07001,370.18870, 5.347647e-003,0.30000,60.00000,7.726135e-006
 936.07001,369.99130, 5.358327e-003,0.29999,60.00000,7.730207e-006
 937.07001,369.79233, 5.369046e-003,0.30000,60.00000,7.734358e-006
 938.07001,369.59230, 5.380005e-003,0.29999,60.00000,7.738769e-006
 939.07001,369.39182, 5.390965e-003,0.30001,60.00000,7.743201e-006
 940.07001,369.18959, 5.401443e-003,0.29999,60.00000,7.746893e-006
 941.07001,368.98488, 5.412318e-003,0.30002,60.00000,7.751201e-006
 942.07001,368.77871, 5.423449e-003,0.29999,60.00000,7.755850e-006
 943.07001,368.57324, 5.434495e-003,0.30001,60.00000,7.760345e-006
 944.07001,368.36862, 5.445646e-003,0.29998,60.00000,7.764968e-006
 945.07001,368.16478, 5.456655e-003,0.30001,60.00000,7.769406e-006
 946.07001,367.96146, 5.467653e-003,0.29999,60.00000,7.773750e-006
 947.07001,367.75847, 5.478901e-003,0.30003,60.00000,7.778443e-006
 948.07001,367.55618, 5.490226e-003,0.29997,60.00000,7.783225e-006
 949.07001,367.35449, 5.501361e-003,0.29998,60.00000,7.787769e-006
 950.07001,367.15322, 5.512574e-003,0.29999,60.00000,7.792443e-006
 951.07001,366.95196, 5.523761e-003,0.30001,60.00000,7.796980e-006
 952.07001,366.75087, 5.534860e-003,0.29998,60.00000,7.801482e-006
 953.07001,366.55040, 5.545590e-003,0.29999,60.00000,7.805429e-006
 954.07001,366.35083, 5.556647e-003,0.30000,60.00000,7.809787e-006
 955.07001,366.15159, 5.567629e-003,0.29999,60.00000,7.814026e-006
 956.07001,365.95225, 5.578401e-003,0.29996,60.00000,7.817989e-006
 957.07001,365.75285, 5.588873e-003,0.30002,60.00000,7.821585e-006
 958.07001,365.55336, 5.599627e-003,0.30002,60.00000,7.825474e-006
 959.07001,365.35420, 5.610373e-003,0.29998,60.00000,7.829347e-006
 960.07001,365.15566, 5.620873e-003,0.30001,60.00000,7.832900e-006
 961.07001,364.95737, 5.631760e-003,0.29994,60.00000,7.836960e-006
 962.07001,364.75933, 5.643154e-003,0.30003,60.00000,7.841742e-006
 963.07001,364.56168, 5.654062e-003,0.29998,60.00000,7.845803e-006
 964.07001,364.36439, 5.664296e-003,0.29999,60.00000,7.848963e-006
 965.07001,364.16710, 5.675440e-003,0.29998,60.00000,7.853300e-006
 966.07001,363.96911, 5.686446e-003,0.30000,60.00000,7.857515e-006
 967.07001,363.77042, 5.697366e-003,0.30000,60.00000,7.861534e-006
 968.07001,363.57120, 5.708416e-003,0.29999,60.00000,7.865741e-006
 969.07001,363.37117, 5.719467e-003,0.30000,60.00000,7.869929e-006
 970.07001,363.17108, 5.730491e-003,0.30000,60.00000,7.874118e-006
 971.07001,362.97164, 5.741490e-003,0.30000,60.00000,7.878159e-006
 972.07001,362.77300, 5.752362e-003,0.30000,60.00000,7.882124e-006
 973.07001,362.57476, 5.763428e-003,0.30001,60.00000,7.886297e-006
 974.07001,362.37665, 5.774571e-003,0.30000,60.00000,7.890547e-006
 975.07001,362.17887, 5.785580e-003,0.29998,60.00000,7.894673e-006
 976.07001,361.98095, 5.796526e-003,0.30000,60.00000,7.898587e-006
 977.07001,361.78240, 5.807483e-003,0.29999,60.00000,7.902615e-006
 978.07001,361.58345, 5.818399e-003,0.30001,60.00000,7.906561e-006
 979.07001,361.38427, 5.829477e-003,0.30000,60.00000,7.910607e-006
 980.07001,361.18400, 5.840033e-003,0.29997,60.00000,7.914033e-006
 981.07001,360.98172, 5.850858e-003,0.30000,60.00000,7.917838e-006
 982.07001,360.77805, 5.861793e-003,0.30001,60.00000,7.921749e-006
 983.07001,360.57355, 5.872787e-003,0.30000,60.00000,7.925715e-006
 984.07001,360.36882, 5.883985e-003,0.29999,60.00000,7.930022e-006
 985.07001,360.16433, 5.895829e-003,0.29998,60.00000,7.934998e-006
 986.07001,359.95962, 5.907511e-003,0.29997,60.00000,7.939840e-006
 987.07001,359.75536, 5.919309e-003,0.29999,60.00000,7.944837e-006
 988.07001,359.55250, 5.931109e-003,0.30000,60.00000,7.949773e-006
 989.07001,359.35041, 5.942773e-003,0.29999,60.00000,7.954530e-006
 990.07001,359.14838, 5.954350e-003,0.30001,60.00000,7.959198e-006
 991.07001,358.94627, 5.965988e-003,0.30000,60.00000,7.963887e-006
 992.07001,358.74353, 5.977231e-003,0.30001,60.00000,7.968093e-006
 993.07001,358.53989, 5.988648e-003,0.30002,60.00000,7.972475e-006
 994.07001,358.33650, 5.999870e-003,0.29999,60.00000,7.976641e-006
 995.07001,358.13341, 6.011146e-003,0.30000,60.00000,7.980837e-006
 996.07001,357.93015, 6.022676e-003,0.29999,60.00000,7.985365e-006
 997.07001,357.72728, 6.034141e-003,0.29999,60.00000,7.989748e-006
 998.07001,357.52525, 6.045616e-003,0.30001,60.00000,7.994193e-006
 999.07001,357.32373, 6.057092e-003,0.29997,60.00000,7.998612e-006
1000.07001,357.12266, 6.068610e-003,0.29998,60.00000,8.003057e-006
1001.07001,356.92173, 6.079925e-003,0.29999,60.00000,8.007225e-006
1002.07001,356.71994, 6.091268e-003,0.30000,60.00000,8.011440e-006
1003.07001,356.51664, 6.102307e-003,0.29997,60.00000,8.015249e-006
1004.07001,356.31201, 6.113329e-003,0.29997,60.00000,8.019069e-006
1005.07001,356.10582, 6.124639e-003,0.29998,60.00000,8.023189e-006
1006.07001,355.89945, 6.136127e-003,0.30001,60.00000,8.027601e-006
1007.07001,355.69542, 6.148341e-003,0.29995,60.00000,8.032832e-006
1008.07001,355.49295, 6.160417e-003,0.30000,60.00000,8.037870e-006
1009.07001,355.29000, 6.172510e-003,0.29999,60.00000,8.042975e-006
1010.07001,355.08710, 6.184599e-003,0.30001,60.00000,8.048033e-006
1011.07001,354.88584, 6.196979e-003,0.30001,60.00000,8.053425e-006
1012.07001,354.68702, 6.208885e-003,0.30000,60.00000,8.058243e-006
1013.07001,354.48990, 6.220488e-003,0.30001,60.00000,8.062641e-006
1014.07001,354.29211, 6.232255e-003,0.30001,60.00000,8.067211e-006
1015.07001,354.09319, 6.243763e-003,0.29999,60.00000,8.071489e-006
1016.07001,353.89420, 6.255570e-003,0.29999,60.00000,8.076114e-006
1017.07001,353.69546, 6.267185e-003,0.29998,60.00000,8.080533e-006
1018.07001,353.49614, 6.278582e-003,0.30000,60.00000,8.084605e-006
1019.07001,353.29564, 6.289854e-003,0.29999,60.00000,8.088591e-006
1020.07001,353.09467, 6.301355e-003,0.30001,60.00000,8.092781e-006
1021.07001,352.89415, 6.312825e-003,0.30000,60.00000,8.096928e-006
1022.07001,352.69401, 6.324329e-003,0.29999,60.00000,8.101163e-006
1023.07001,352.49455, 6.335899e-003,0.30000,60.00000,8.105403e-006
1024.07001,352.29540, 6.347039e-003,0.29998,60.00000,8.109177e-006
1025.07001,352.09643, 6.358312e-003,0.30001,60.00000,8.113054e-006
1026.07001,351.89794, 6.369815e-003,0.29998,60.00000,8.117187e-006
1027.07001,351.69936, 6.380938e-003,0.30000,60.00000,8.120832e-006
1028.07001,351.50097, 6.392404e-003,0.30001,60.00000,8.124921e-006
1029.07001,351.30287, 6.404092e-003,0.29999,60.00000,8.129327e-006
1030.07001,351.10533, 6.416109e-003,0.30001,60.00000,8.134031e-006
1031.07001,350.90871, 6.427866e-003,0.30000,60.00000,8.138492e-006
1032.07001,350.71216, 6.439345e-003,0.30001,60.00000,8.142525e-006
1033.07001,350.51497, 6.451262e-003,0.29998,60.00000,8.147001e-006
1034.07001,350.31723, 6.462929e-003,0.30002,60.00000,8.151349e-006
1035.07001,350.11874, 6.474164e-003,0.30003,60.00000,8.155104e-006
1036.07001,349.91960, 6.485600e-003,0.30002,60.00000,8.159074e-006
1037.07001,349.71924, 6.496868e-003,0.30000,60.00000,8.162799e-006
1038.07001,349.51715, 6.508239e-003,0.30001,60.00000,8.166692e-006
1039.07001,349.31415, 6.519753e-003,0.29998,60.00000,8.170738e-006
1040.07001,349.11058, 6.530953e-003,0.30000,60.00000,8.174375e-006
1041.07001,348.90604, 6.542226e-003,0.29999,60.00000,8.178126e-006
1042.07001,348.70102, 6.553649e-003,0.29999,60.00000,8.182040e-006
1043.07001,348.49542, 6.565051e-003,0.30000,60.00000,8.185896e-006
1044.07001,348.28913, 6.576592e-003,0.30003,60.00000,8.189917e-006
1045.07001,348.08324, 6.587753e-003,0.29998,60.00000,8.193460e-006
1046.07001,347.87801, 6.599097e-003,0.29999,60.00000,8.197223e-006
1047.07001,347.67360, 6.610822e-003,0.29999,60.00000,8.201467e-006
1048.07001,347.47110, 6.622698e-003,0.29998,60.00000,8.205792e-006
1049.07001,347.26972, 6.634567e-003,0.29998,60.00000,8.210188e-006
1050.07001,347.06812, 6.646552e-003,0.30004,60.00000,8.214698e-006
1051.07001,346.86661, 6.658902e-003,0.29998,60.00000,8.219616e-006
1052.07001,346.66464, 6.671984e-003,0.30000,60.00000,8.225393e-006
1053.07001,346.46186, 6.684678e-003,0.29999,60.00000,8.230645e-006
1054.07001,346.25839, 6.697328e-003,0.30000,60.00000,8.235913e-006
1055.07001,346.05461, 6.709489e-003,0.30002,60.00000,8.240575e-006
1056.07001,345.85132, 6.721605e-003,0.30000,60.00000,8.245177e-006
1057.07001,345.64811, 6.733810e-003,0.29997,60.00000,8.249787e-006
1058.07001,345.44435, 6.745678e-003,0.29998,60.00000,8.254065e-006
1059.07001,345.24029, 6.757858e-003,0.29998,60.00000,8.258718e-006
1060.07001,345.03714, 6.770019e-003,0.30001,60.00000,8.263284e-006
1061.07001,344.83466, 6.782468e-003,0.30000,60.00000,8.268202e-006
1062.07001,344.63256, 6.794673e-003,0.29996,60.00000,8.272829e-006
1063.07001,344.43110, 6.806567e-003,0.29999,60.00000,8.277067e-006
1064.07001,344.22957, 6.818909e-003,0.30000,60.00000,8.281847e-006
1065.07001,344.02773, 6.831232e-003,0.30000,60.00000,8.286562e-006
1066.07001,343.82637, 6.843663e-003,0.30001,60.00000,8.291408e-006
1067.07001,343.62572, 6.855926e-003,0.29999,60.00000,8.296046e-006
1068.07001,343.42562, 6.868063e-003,0.30000,60.00000,8.300538e-006
1069.07001,343.22620, 6.880002e-003,0.29999,60.00000,8.304739e-006
1070.07001,343.02716, 6.892019e-003,0.29997,60.00000,8.309089e-006
1071.07001,342.82831, 6.904062e-003,0.29996,60.00000,8.313389e-006
1072.07001,342.62992, 6.916376e-003,0.30000,60.00000,8.318048e-006
1073.07001,342.43114, 6.929129e-003,0.29998,60.00000,8.323158e-006
1074.07001,342.23194, 6.941510e-003,0.29999,60.00000,8.327898e-006
1075.07001,342.03280, 6.954036e-003,0.29999,60.00000,8.332754e-006
1076.07001,341.83406, 6.966689e-003,0.30001,60.00000,8.337753e-006
1077.07001,341.63578, 6.979103e-003,0.29998,60.00000,8.342424e-006
1078.07001,341.43759, 6.991639e-003,0.29998,60.00000,8.347198e-006
1079.07001,341.23976, 7.003938e-003,0.29999,60.00000,8.351823e-006
1080.07001,341.04233, 7.016091e-003,0.30001,60.00000,8.356151e-006
1081.07001,340.84465, 7.027985e-003,0.30000,60.00000,8.360215e-006
1082.07001,340.64608, 7.039770e-003,0.29998,60.00000,8.364171e-006
1083.07001,340.44699, 7.051638e-003,0.30000,60.00000,8.368232e-006
1084.07001,340.24821, 7.063856e-003,0.30000,60.00000,8.372627e-006
1085.07001,340.04960, 7.075762e-003,0.30000,60.00000,8.376638e-006
1086.07001,339.85039, 7.087664e-003,0.30000,60.00000,8.380662e-006
1087.07001,339.65058, 7.099749e-003,0.29998,60.00000,8.384857e-006
1088.07001,339.44994, 7.111616e-003,0.29999,60.00000,8.388771e-006
1089.07001,339.24779, 7.123558e-003,0.30001,60.00000,8.392857e-006
1090.07001,339.04479, 7.135587e-003,0.30000,60.00000,8.397007e-006
1091.07001,338.84278, 7.147600e-003,0.29999,60.00000,8.401122e-006
1092.07001,338.64182, 7.159901e-003,0.29999,60.00000,8.405488e-006
1093.07001,338.44102, 7.172199e-003,0.30000,60.00000,8.409906e-006
1094.07001,338.24038, 7.184901e-003,0.30001,60.00000,8.414785e-006
1095.07001,338.03978, 7.197270e-003,0.29998,60.00000,8.419256e-006
1096.07001,337.83908, 7.209885e-003,0.30001,60.00000,8.423983e-006
1097.07001,337.63860, 7.222263e-003,0.30000,60.00000,8.428448e-006
1098.07001,337.43773, 7.234142e-003,0.30000,60.00000,8.432395e-006
1099.07001,337.23608, 7.246388e-003,0.30002,60.00000,8.436610e-006
1100.07001,337.03360, 7.258154e-003,0.29998,60.00000,8.440330e-006
1101.07001,336.83015, 7.270231e-003,0.29999,60.00000,8.444441e-006
1102.07001,336.62644, 7.282492e-003,0.30002,60.00000,8.448715e-006
1103.07001,336.42280, 7.294718e-003,0.29998,60.00000,8.452972e-006
1104.07001,336.21939, 7.307324e-003,0.30000,60.00000,8.457607e-006
1105.07001,336.01759, 7.320070e-003,0.30001,60.00000,8.462430e-006
1106.07001,335.81810, 7.332769e-003,0.30002,60.00000,8.467123e-006
1107.07001,335.61930, 7.345368e-003,0.29999,60.00000,8.471663e-006
1108.07001,335.41920, 7.357138e-003,0.29997,60.00000,8.475400e-006
1109.07001,335.21622, 7.369001e-003,0.30001,60.00000,8.479127e-006
1110.07001,335.01164, 7.381253e-003,0.29997,60.00000,8.483362e-006
1111.07001,334.80838, 7.393450e-003,0.30000,60.00000,8.487490e-006
1112.07001,334.60611, 7.405559e-003,0.29999,60.00000,8.491499e-006
1113.07001,334.40402, 7.417804e-003,0.30000,60.00000,8.495656e-006
1114.07001,334.20277, 7.430906e-003,0.30000,60.00000,8.500735e-006
1115.07001,334.00306, 7.444007e-003,0.29998,60.00000,8.505838e-006
1116.07001,333.80333, 7.456788e-003,0.29997,60.00000,8.510510e-006
1117.07001,333.60260, 7.469923e-003,0.30000,60.00000,8.515634e-006
1118.07001,333.40113, 7.482853e-003,0.30000,60.00000,8.520475e-006
1119.07001,333.19866, 7.495734e-003,0.30000,60.00000,8.525260e-006
1120.07001,332.99562, 7.508567e-003,0.29998,60.00000,8.530075e-006
1121.07001,332.79343, 7.521554e-003,0.30000,60.00000,8.534973e-006
1122.07001,332.59335, 7.534770e-003,0.29998,60.00000,8.540084e-006
1123.07001,332.39483, 7.547912e-003,0.29998,60.00000,8.545103e-006
1124.07001,332.19683, 7.560855e-003,0.30000,60.00000,8.549906e-006
1125.07001,331.99847, 7.573666e-003,0.29999,60.00000,8.554520e-006
1126.07001,331.79971, 7.586670e-003,0.30001,60.00000,8.559408e-006
1127.07001,331.60052, 7.599339e-003,0.29999,60.00000,8.563884e-006
1128.07001,331.40033, 7.612150e-003,0.30001,60.00000,8.568544e-006
1129.07001,331.19846, 7.625078e-003,0.29999,60.00000,8.573259e-006
1130.07001,330.99527, 7.638085e-003,0.29999,60.00000,8.578097e-006
1131.07001,330.79149, 7.650980e-003,0.29999,60.00000,8.582800e-006
1132.07001,330.58851, 7.663814e-003,0.29996,60.00000,8.587401e-006
1133.07001,330.38655, 7.676682e-003,0.29996,60.00000,8.592023e-006
1134.07001,330.18410, 7.689213e-003,0.29999,60.00000,8.596267e-006
1135.07001,329.98129, 7.702311e-003,0.29999,60.00000,8.601160e-006
1136.07001,329.77777, 7.715167e-003,0.30001,60.00000,8.605745e-006
1137.07001,329.57290, 7.728082e-003,0.29999,60.00000,8.610417e-006
1138.07001,329.36819, 7.741020e-003,0.30002,60.00000,8.615065e-006
1139.07001,329.16521, 7.753644e-003,0.29999,60.00000,8.619395e-006
1140.07001,328.96373, 7.766531e-003,0.29997,60.00000,8.623996e-006
1141.07001,328.76450, 7.779365e-003,0.29998,60.00000,8.628511e-006
1142.07001,328.56830, 7.792401e-003,0.29998,60.00000,8.633244e-006
1143.07001,328.37507, 7.805330e-003,0.30000,60.00000,8.637876e-006
1144.07001,328.18425, 7.818587e-003,0.30000,60.00000,8.642743e-006
1145.07001,327.99423, 7.831575e-003,0.30000,60.00000,8.647389e-006
1146.07001,327.80241, 7.844144e-003,0.30000,60.00000,8.651569e-006
1147.07001,327.60711, 7.856905e-003,0.29998,60.00000,8.655958e-006
1148.07001,327.40915, 7.869572e-003,0.30000,60.00000,8.660238e-006
1149.07001,327.21029, 7.882357e-003,0.30001,60.00000,8.664665e-006
1150.07001,327.01115, 7.895371e-003,0.29998,60.00000,8.669254e-006
1151.07001,326.81159, 7.908364e-003,0.30000,60.00000,8.673862e-006
1152.07001,326.61104, 7.920882e-003,0.30000,60.00000,8.677895e-006
1153.07001,326.40901, 7.933395e-003,0.29999,60.00000,8.682030e-006
1154.07001,326.20468, 7.946004e-003,0.30001,60.00000,8.686159e-006
1155.07001,325.99812, 7.958477e-003,0.29998,60.00000,8.690175e-006
1156.07001,325.78969, 7.971083e-003,0.29999,60.00000,8.694296e-006
1157.07001,325.58049, 7.983768e-003,0.29999,60.00000,8.698551e-006
1158.07001,325.37202, 7.997069e-003,0.29999,60.00000,8.703427e-006
1159.07001,325.16613, 8.010686e-003,0.29999,60.00000,8.708590e-006
1160.07001,324.96348, 8.024037e-003,0.30000,60.00000,8.713472e-006
1161.07001,324.76207, 8.037274e-003,0.30000,60.00000,8.718224e-006
1162.07001,324.55995, 8.050770e-003,0.30001,60.00000,8.723207e-006
1163.07001,324.35449, 8.063756e-003,0.30001,60.00000,8.727673e-006
1164.07001,324.14317, 8.077211e-003,0.30001,60.00000,8.732647e-006
1165.07001,323.92884, 8.090536e-003,0.30000,60.00000,8.737479e-006
1166.07001,323.71622, 8.103751e-003,0.29998,60.00000,8.742175e-006
1167.07001,323.50745, 8.116094e-003,0.29998,60.00000,8.745924e-006
1168.07001,323.30097, 8.128125e-003,0.30000,60.00000,8.749291e-006
1169.07001,323.09339, 8.140357e-003,0.29999,60.00000,8.752966e-006
1170.07001,322.88453, 8.152912e-003,0.29998,60.00000,8.756953e-006
1171.07001,322.67733, 8.166283e-003,0.30001,60.00000,8.761771e-006
1172.07001,322.47366, 8.179932e-003,0.30001,60.00000,8.766845e-006
1173.07001,322.27113, 8.193929e-003,0.30001,60.00000,8.772217e-006
1174.07001,322.06631, 8.207601e-003,0.30002,60.00000,8.777329e-006
1175.07001,321.85921, 8.221010e-003,0.30000,60.00000,8.782132e-006
1176.07001,321.65223, 8.234170e-003,0.30001,60.00000,8.786693e-006
1177.07001,321.44714, 8.247959e-003,0.29999,60.00000,8.791857e-006
1178.07001,321.24505, 8.261851e-003,0.29999,60.00000,8.797151e-006
1179.07001,321.04619, 8.275609e-003,0.30000,60.00000,8.802248e-006
1180.07001,320.84993, 8.289686e-003,0.30002,60.00000,8.807682e-006
1181.07001,320.65500, 8.303446e-003,0.29997,60.00000,8.812734e-006
1182.07001,320.45944, 8.317048e-003,0.29998,60.00000,8.817655e-006
1183.07001,320.26074, 8.330270e-003,0.30000,60.00000,8.822139e-006
1184.07001,320.05590, 8.342748e-003,0.29999,60.00000,8.825883e-006
1185.07001,319.84246, 8.355143e-003,0.29997,60.00000,8.829550e-006
1186.07001,319.61977, 8.367688e-003,0.30000,60.00000,8.833375e-006
1187.07001,319.39218, 8.380499e-003,0.30002,60.00000,8.837561e-006
1188.07001,319.16910, 8.394258e-003,0.30000,60.00000,8.842608e-006
1189.07001,318.95691, 8.408643e-003,0.30002,60.00000,8.848295e-006
1190.07001,318.75703, 8.423336e-003,0.30001,60.00000,8.854264e-006
1191.07001,318.56891, 8.439241e-003,0.29998,60.00000,8.861483e-006
1192.07001,318.39195, 8.454923e-003,0.30000,60.00000,8.868411e-006
1193.07001,318.22502, 8.470928e-003,0.29999,60.00000,8.875675e-006
1194.07001,318.06599, 8.486729e-003,0.30000,60.00000,8.882648e-006
1195.07001,317.91249, 8.501892e-003,0.30001,60.00000,8.889033e-006
1196.07001,317.76102, 8.516511e-003,0.29999,60.00000,8.894763e-006
1197.07001,317.60698, 8.530482e-003,0.30000,60.00000,8.899785e-006
1198.07001,317.44488, 8.543715e-003,0.29998,60.00000,8.904087e-006
1199.07001,317.26903, 8.556229e-003,0.29999,60.00000,8.907753e-006
1200.07001,317.07270, 8.568296e-003,0.29999,60.00000,8.910947e-006
1201.07001,316.84654, 8.579986e-003,0.30000,60.00000,8.913744e-006
1202.07001,316.57902, 8.590369e-003,0.29999,60.00000,8.915344e-006
1203.07001,316.27619, 8.600941e-003,0.29998,60.00000,8.917147e-006
1204.07001,315.98677, 8.614308e-003,0.29999,60.00000,8.921737e-006
1205.07001,315.73976, 8.628633e-003,0.29997,60.00000,8.927175e-006
1206.07001,315.52142, 8.642998e-003,0.30000,60.00000,8.932577e-006
1207.07001,315.32037, 8.657727e-003,0.30003,60.00000,8.938434e-006
1208.07001,315.13562, 8.673497e-003,0.30000,60.00000,8.945285e-006
1209.07001,314.96613, 8.690012e-003,0.29997,60.00000,8.952879e-006
1210.07001,314.80898, 8.705800e-003,0.29999,60.00000,8.959724e-006
1211.07001,314.66057, 8.721604e-003,0.30002,60.00000,8.966443e-006
1212.07001,314.51714, 8.737080e-003,0.29997,60.00000,8.972884e-006
1213.07001,314.37407, 8.751466e-003,0.29999,60.00000,8.978177e-006
1214.07001,314.22617, 8.764781e-003,0.29999,60.00000,8.982374e-006
1215.07001,314.06827, 8.777859e-003,0.29997,60.00000,8.986451e-006
1216.07001,313.89530, 8.790791e-003,0.30001,60.00000,8.990363e-006
1217.07001,313.70202, 8.803076e-003,0.29995,60.00000,8.993655e-006
1218.07001,313.47894, 8.814671e-003,0.30000,60.00000,8.996247e-006
1219.07001,313.20871, 8.825225e-003,0.30001,60.00000,8.997821e-006
1220.07001,312.86936, 8.834934e-003,0.29998,60.00000,8.998657e-006
1221.07001,312.52283, 8.848543e-003,0.30000,60.00000,9.003478e-006
1222.07001,312.24917, 8.862728e-003,0.29999,60.00000,9.008460e-006
1223.07001,312.00957, 8.877052e-003,0.29999,60.00000,9.013713e-006
1224.07001,311.79118, 8.892260e-003,0.29998,60.00000,9.019909e-006
1225.07001,311.59573, 8.908472e-003,0.30002,60.00000,9.027047e-006
1226.07001,311.42151, 8.925630e-003,0.29999,60.00000,9.035036e-006
1227.07001,311.26392, 8.943293e-003,0.29999,60.00000,9.043489e-006
1228.07001,311.11836, 8.960421e-003,0.30001,60.00000,9.051449e-006
1229.07001,310.98065, 8.977691e-003,0.29997,60.00000,9.059395e-006
1230.07001,310.84699, 8.993901e-003,0.30000,60.00000,9.066311e-006
1231.07001,310.71284, 9.009506e-003,0.29998,60.00000,9.072543e-006
1232.07001,310.57368, 9.024099e-003,0.29999,60.00000,9.077880e-006
1233.07001,310.42514, 9.038259e-003,0.29998,60.00000,9.082871e-006
1234.07001,310.26424, 9.052228e-003,0.29999,60.00000,9.087663e-006
1235.07001,310.08777, 9.065589e-003,0.29999,60.00000,9.091826e-006
1236.07001,309.88987, 9.078330e-003,0.29995,60.00000,9.095400e-006
1237.07001,309.65788, 9.089434e-003,0.30000,60.00000,9.097319e-006
1238.07001,309.35676, 9.098287e-003,0.30000,60.00000,9.097064e-006
1239.07001,308.92033, 9.107059e-003,0.30000,60.00000,9.097089e-006
1240.07001,308.56707, 9.123074e-003,0.29999,60.00000,9.104006e-006
1241.07001,308.32824, 9.139173e-003,0.29998,60.00000,9.110737e-006
1242.07001,308.13122, 9.155001e-003,0.29998,60.00000,9.117195e-006
1243.07001,307.95659, 9.170559e-003,0.30001,60.00000,9.123391e-006
1244.07001,307.79624, 9.187078e-003,0.29996,60.00000,9.130527e-006
1245.07001,307.64669, 9.203961e-003,0.30001,60.00000,9.138055e-006
1246.07001,307.50537, 9.220065e-003,0.30001,60.00000,9.144710e-006
1247.07001,307.36903, 9.235838e-003,0.29997,60.00000,9.151001e-006
1248.07001,307.23362, 9.250542e-003,0.29998,60.00000,9.156227e-006
1249.07001,307.09507, 9.264717e-003,0.29999,60.00000,9.160975e-006
1250.07001,306.94975, 9.278394e-003,0.29999,60.00000,9.165286e-006
1251.07001,306.79602, 9.292489e-003,0.29999,60.00000,9.170092e-006
1252.07001,306.63450, 9.306728e-003,0.29999,60.00000,9.174980e-006
1253.07001,306.46537, 9.320446e-003,0.30001,60.00000,9.179302e-006
1254.07001,306.28654, 9.333980e-003,0.30000,60.00000,9.183513e-006
1255.07001,306.09394, 9.346479e-003,0.30000,60.00000,9.186623e-006
1256.07001,305.87624, 9.357433e-003,0.29998,60.00000,9.188269e-006
1257.07001,305.60486, 9.366311e-003,0.30001,60.00000,9.187921e-006
1258.07001,305.18759, 9.372168e-003,0.29999,60.00000,9.184931e-006
1259.07001,304.72528, 9.386086e-003,0.30000,60.00000,9.189896e-006
1260.07001,304.46104, 9.403405e-003,0.30000,60.00000,9.197553e-006
1261.07001,304.26130, 9.421254e-003,0.30000,60.00000,9.205768e-006
1262.07001,304.09076, 9.438830e-003,0.29999,60.00000,9.213691e-006
1263.07001,303.93707, 9.456075e-003,0.30000,60.00000,9.221284e-006
1264.07001,303.79366, 9.473530e-003,0.29997,60.00000,9.229053e-006
1265.07001,303.65634, 9.489792e-003,0.30000,60.00000,9.235600e-006
1266.07001,303.52220, 9.505597e-003,0.30002,60.00000,9.241799e-006
1267.07001,303.38761, 9.521052e-003,0.29999,60.00000,9.247549e-006
1268.07001,303.24920, 9.535253e-003,0.30000,60.00000,9.252118e-006
1269.07001,303.10309, 9.549571e-003,0.30003,60.00000,9.256890e-006
1270.07001,302.94682, 9.563806e-003,0.29998,60.00000,9.261640e-006
1271.07001,302.77967, 9.577821e-003,0.29998,60.00000,9.266203e-006
1272.07001,302.60237, 9.591714e-003,0.30001,60.00000,9.270535e-006
1273.07001,302.41407, 9.605680e-003,0.29999,60.00000,9.274924e-006
1274.07001,302.21019, 9.619104e-003,0.30002,60.00000,9.278823e-006
1275.07001,301.98320, 9.632270e-003,0.29999,60.00000,9.282475e-006
1276.07001,301.71421, 9.643961e-003,0.30000,60.00000,9.284678e-006
1277.07001,301.35456, 9.654929e-003,0.29999,60.00000,9.286323e-006
1278.07001,300.94392, 9.670947e-003,0.30001,60.00000,9.293042e-006
1279.07001,300.66133, 9.689924e-003,0.29998,60.00000,9.302074e-006
1280.07001,300.44464, 9.707932e-003,0.30001,60.00000,9.310133e-006
1281.07001,300.25545, 9.726004e-003,0.29997,60.00000,9.318286e-006
1282.07001,300.08220, 9.743197e-003,0.29998,60.00000,9.325621e-006
1283.07001,299.92001, 9.759997e-003,0.29998,60.00000,9.332579e-006
1284.07001,299.76522, 9.777165e-003,0.30000,60.00000,9.339799e-006
1285.07001,299.61460, 9.793583e-003,0.30000,60.00000,9.346357e-006
1286.07001,299.46552, 9.809526e-003,0.29996,60.00000,9.352442e-006
1287.07001,299.31550, 9.825650e-003,0.29998,60.00000,9.358639e-006
1288.07001,299.16150, 9.841256e-003,0.29999,60.00000,9.364399e-006
1289.07001,299.00042, 9.856475e-003,0.30000,60.00000,9.369814e-006
1290.07001,298.83045, 9.871351e-003,0.29999,60.00000,9.374950e-006
1291.07001,298.65025, 9.886123e-003,0.29999,60.00000,9.379925e-006
1292.07001,298.45676, 9.900113e-003,0.30000,60.00000,9.384150e-006
1293.07001,298.24698, 9.914428e-003,0.29999,60.00000,9.388759e-006
1294.07001,298.02000, 9.928714e-003,0.30000,60.00000,9.393265e-006
1295.07001,297.77183, 9.943050e-003,0.30000,60.00000,9.397887e-006
1296.07001,297.50043, 9.958460e-003,0.29998,60.00000,9.403415e-006
1297.07001,297.22375, 9.975215e-003,0.30000,60.00000,9.410332e-006
1298.07001,296.97575, 9.992326e-003,0.29998,60.00000,9.417459e-006
1299.07001,296.75685, 1.000932e-002,0.29999,60.00000,9.424355e-006
1300.07001,296.55135, 1.002646e-002,0.30000,60.00000,9.431366e-006
1301.07001,296.35224, 1.004328e-002,0.29999,60.00000,9.438142e-006
1302.07001,296.15707, 1.006029e-002,0.29999,60.00000,9.445041e-006
1303.07001,295.96420, 1.007689e-002,0.29999,60.00000,9.451610e-006
1304.07001,295.77257, 1.009340e-002,0.30000,60.00000,9.458017e-006
1305.07001,295.58042, 1.010910e-002,0.29997,60.00000,9.463749e-006
1306.07001,295.38592, 1.012488e-002,0.30001,60.00000,9.469479e-006
1307.07001,295.18969, 1.014103e-002,0.29999,60.00000,9.475590e-006
1308.07001,294.99209, 1.015793e-002,0.29997,60.00000,9.482352e-006
1309.07001,294.79375, 1.017499e-002,0.29996,60.00000,9.489276e-006
1310.07001,294.59555, 1.019212e-002,0.29998,60.00000,9.496200e-006
1311.07001,294.39788, 1.020840e-002,0.30000,60.00000,9.502355e-006
1312.07001,294.20042, 1.022464e-002,0.29999,60.00000,9.508446e-006
1313.07001,294.00308, 1.024096e-002,0.30000,60.00000,9.514649e-006
1314.07001,293.80596, 1.025741e-002,0.30001,60.00000,9.520965e-006
1315.07001,293.60898, 1.027388e-002,0.30000,60.00000,9.527219e-006
1316.07001,293.41115, 1.029026e-002,0.30002,60.00000,9.533389e-006
1317.07001,293.21131, 1.030696e-002,0.29999,60.00000,9.539907e-006
1318.07001,293.00988, 1.032351e-002,0.29998,60.00000,9.546210e-006
1319.07001,292.80739, 1.034005e-002,0.29998,60.00000,9.552486e-006
1320.07001,292.60434, 1.035676e-002,0.30000,60.00000,9.558972e-006
1321.07001,292.40125, 1.037319e-002,0.30000,60.00000,9.565161e-006
1322.07001,292.19789, 1.039046e-002,0.29998,60.00000,9.572065e-006
1323.07001,291.99381, 1.040805e-002,0.29998,60.00000,9.579276e-006
1324.07001,291.78728, 1.042507e-002,0.30002,60.00000,9.585944e-006
1325.07001,291.57814, 1.044253e-002,0.29998,60.00000,9.593014e-006
1326.07001,291.36838, 1.045989e-002,0.30000,60.00000,9.599970e-006
1327.07001,291.15904, 1.047751e-002,0.29998,60.00000,9.607170e-006
1328.07001,290.95024, 1.049486e-002,0.29999,60.00000,9.614091e-006
1329.07001,290.74257, 1.051236e-002,0.30000,60.00000,9.621135e-006
1330.07001,290.53663, 1.052988e-002,0.30000,60.00000,9.628203e-006
1331.07001,290.33102, 1.054732e-002,0.29998,60.00000,9.635139e-006
1332.07001,290.12459, 1.056511e-002,0.29999,60.00000,9.642415e-006
1333.07001,289.91795, 1.058263e-002,0.30000,60.00000,9.649407e-006
1334.07001,289.71037, 1.060001e-002,0.29998,60.00000,9.656276e-006
1335.07001,289.50293, 1.061810e-002,0.29999,60.00000,9.663865e-006
1336.07001,289.29930, 1.063725e-002,0.30001,60.00000,9.672293e-006
1337.07001,289.09838, 1.065633e-002,0.30002,60.00000,9.680560e-006
1338.07001,288.89839, 1.067543e-002,0.30000,60.00000,9.688929e-006
1339.07001,288.69967, 1.069426e-002,0.30002,60.00000,9.697046e-006
1340.07001,288.50162, 1.071286e-002,0.29999,60.00000,9.704874e-006
1341.07001,288.30409, 1.073177e-002,0.29998,60.00000,9.713058e-006
1342.07001,288.10702, 1.075073e-002,0.29999,60.00000,9.721182e-006
1343.07001,287.91030, 1.076956e-002,0.30000,60.00000,9.729238e-006
1344.07001,287.71399, 1.078843e-002,0.30000,60.00000,9.737326e-006
1345.07001,287.51796, 1.080704e-002,0.29997,60.00000,9.745107e-006
1346.07001,287.32181, 1.082534e-002,0.30000,60.00000,9.752641e-006
1347.07001,287.12564, 1.084402e-002,0.29999,60.00000,9.760509e-006
1348.07001,286.92963, 1.086310e-002,0.30000,60.00000,9.768684e-006
1349.07001,286.73239, 1.088270e-002,0.29999,60.00000,9.777320e-006
1350.07001,286.53274, 1.090145e-002,0.30003,60.00000,9.785158e-006
1351.07001,286.32861, 1.092035e-002,0.30001,60.00000,9.793109e-006
1352.07001,286.11700, 1.093873e-002,0.30001,60.00000,9.800666e-006
1353.07001,285.89627, 1.095716e-002,0.30000,60.00000,9.808190e-006
1354.07001,285.66571, 1.097603e-002,0.29997,60.00000,9.816189e-006
1355.07001,285.43282, 1.099605e-002,0.30000,60.00000,9.825136e-006
1356.07001,285.21273, 1.101710e-002,0.29998,60.00000,9.835004e-006
1357.07001,285.00853, 1.103752e-002,0.29997,60.00000,9.844104e-006
1358.07001,284.81042, 1.105722e-002,0.29998,60.00000,9.852682e-006
1359.07001,284.61121, 1.107661e-002,0.30002,60.00000,9.860947e-006
1360.07001,284.40987, 1.109624e-002,0.29999,60.00000,9.869489e-006
1361.07001,284.20609, 1.111669e-002,0.30002,60.00000,9.878717e-006
1362.07001,284.00398, 1.113739e-002,0.30002,60.00000,9.888073e-006
1363.07001,283.80608, 1.115739e-002,0.29999,60.00000,9.896830e-006
1364.07001,283.61010, 1.117730e-002,0.29998,60.00000,9.905534e-006
1365.07001,283.41551, 1.119727e-002,0.30001,60.00000,9.914233e-006
1366.07001,283.22302, 1.121736e-002,0.29998,60.00000,9.923073e-006
1367.07001,283.03224, 1.123703e-002,0.29999,60.00000,9.931455e-006
1368.07001,282.84206, 1.125641e-002,0.30000,60.00000,9.939619e-006
1369.07001,282.65204, 1.127619e-002,0.30000,60.00000,9.948100e-006
1370.07001,282.46293, 1.129687e-002,0.30000,60.00000,9.957353e-006
1371.07001,282.27499, 1.131797e-002,0.29990,60.00000,9.966954e-006
1372.07001,282.08765, 1.133970e-002,0.30001,60.00000,9.977088e-006
1373.07001,281.90013, 1.136191e-002,0.30000,60.00000,9.987553e-006
1374.07001,281.71272, 1.138333e-002,0.30000,60.00000,9.997439e-006
1375.07001,281.52737, 1.140557e-002,0.29997,60.00000,1.000797e-005
1376.07001,281.34542, 1.142718e-002,0.29999,60.00000,1.001790e-005
1377.07001,281.16541, 1.144887e-002,0.30003,60.00000,1.002791e-005
1378.07001,280.98660, 1.147081e-002,0.29997,60.00000,1.003808e-005
1379.07001,280.80909, 1.149220e-002,0.29999,60.00000,1.004781e-005
1380.07001,280.63286, 1.151415e-002,0.29999,60.00000,1.005798e-005
1381.07001,280.45746, 1.153580e-002,0.29999,60.00000,1.006786e-005
1382.07001,280.28269, 1.155853e-002,0.29999,60.00000,1.007869e-005
1383.07001,280.10886, 1.158191e-002,0.30002,60.00000,1.009001e-005
1384.07001,279.93617, 1.160528e-002,0.30000,60.00000,1.010132e-005
1385.07001,279.76512, 1.162780e-002,0.29998,60.00000,1.011189e-005
1386.07001,279.59467, 1.165065e-002,0.29997,60.00000,1.012268e-005
1387.07001,279.42351, 1.167369e-002,0.29999,60.00000,1.013365e-005
1388.07001,279.25216, 1.169670e-002,0.29999,60.00000,1.014464e-005
1389.07001,279.08129, 1.171972e-002,0.30000,60.00000,1.015557e-005
1390.07001,278.91063, 1.174321e-002,0.30001,60.00000,1.016685e-005
1391.07001,278.73973, 1.176712e-002,0.30001,60.00000,1.017842e-005
1392.07001,278.56784, 1.179123e-002,0.29996,60.00000,1.019021e-005
1393.07001,278.39390, 1.181673e-002,0.29999,60.00000,1.020319e-005
1394.07001,278.21810, 1.184260e-002,0.30000,60.00000,1.021640e-005
1395.07001,278.04123, 1.186838e-002,0.29998,60.00000,1.022954e-005
1396.07001,277.86400, 1.189460e-002,0.30000,60.00000,1.024305e-005
1397.07001,277.68676, 1.192143e-002,0.29999,60.00000,1.025704e-005
1398.07001,277.50737, 1.194723e-002,0.30001,60.00000,1.027001e-005
1399.07001,277.32097, 1.197412e-002,0.30000,60.00000,1.028396e-005

