#EXPORTTYPE:       ,DATA ALL                        
#FILE:             ,李院长 MgO-C C9-骨 C9-基 1400.ngb-dl9
#FORMAT:           ,NETZSCH5                        
#FTYPE:            ,ANSI                            
#IDENTITY:         ,C9-骨                            
#DECIMAL:          ,POINT                           
#SEPARATOR:        ,COMMA                           
#MTYPE:            ,DIL                             
#INSTRUMENT:       ,NETZSCH DIL 402SU               
#PROJECT:          ,123                             
#DATE/TIME:        ,2025/6/4 16:10:34 (UTC+8)       
#CORR. FILE:       ,石墨炉 1400度-1.ngb-cl9             
#TEMPCAL:          ,TCALZERO.TMX                    
#LABORATORY:       ,wust                            
#OPERATOR:         ,                                
#REMARK:           ,                                
#SAMPLE:           ,镁碳                              
#SAMPLE LENGTH /mm:,25.64                           
#MATERIAL:         ,镁碳                              
#MEASMODE:         ,Standard Expansion              
#M.RANGE /μm:      ,50000                           
#CORR. CODE:       ,080                             
#RANGE:            ,1403°C/5.0(K/min)/200°C         
#SEGMENT:          ,S2/2                            
#SEG. 2:           ,1403°C/5.0(K/min)/200°C         
#Tref:             ,210.0°C                         

##Temp./°C,Time/min,dL/Lo,Force/N,Gas Flow(protective)/(ml/min),m. CTE(2)/(1/K)
 200.93700,516.18250,9.742425e-005,0.30000,60.00000,6.029877e-006
 201.93700,515.98968,1.045826e-004,0.30000,60.00000,5.891591e-006
 202.93700,515.79505,1.105741e-004,0.29999,60.00000,5.876388e-006
 203.93700,515.59911,1.163389e-004,0.29999,60.00000,5.894075e-006
 204.93700,515.40181,1.224849e-004,0.30000,60.00000,5.861204e-006
 205.93700,515.20309,1.283996e-004,0.29999,60.00000,5.788325e-006
 206.93700,515.00381,1.341340e-004,0.30000,60.00000,5.715227e-006
 207.93700,514.80503,1.403013e-004,0.30002,60.00000,5.642314e-006
 208.93700,514.60791,1.455397e-004,0.29997,60.00000,5.570010e-006
 209.93700,514.41255,1.517196e-004,0.30000,60.00000,5.498353e-006
 210.93700,514.21858,1.579815e-004,0.30001,60.00000,5.427203e-006
 211.93700,514.02577,1.623399e-004,0.30000,60.00000,5.356478e-006
 212.93700,513.83365,1.671786e-004,0.30002,60.00000,5.286010e-006
 213.93700,513.64141,1.722639e-004,0.29998,60.00000,5.215497e-006
 214.93700,513.44839,1.772661e-004,0.30000,60.00000,5.144616e-006
 215.93700,513.25385,1.825684e-004,0.29999,60.00000,5.136270e-006
 216.93700,513.05741,1.883074e-004,0.30003,60.00000,5.225296e-006
 217.93700,512.85921,1.941650e-004,0.30000,60.00000,5.304428e-006
 218.93700,512.65976,2.001524e-004,0.29999,60.00000,5.381417e-006
 219.93700,512.45997,2.063058e-004,0.30000,60.00000,5.459083e-006
 220.93700,512.26087,2.125062e-004,0.29998,60.00000,5.526209e-006
 221.93700,512.06305,2.190081e-004,0.30000,60.00000,5.606798e-006
 222.93700,511.86699,2.251693e-004,0.30000,60.00000,5.651561e-006
 223.93700,511.67238,2.311916e-004,0.30003,60.00000,5.676694e-006
 224.93700,511.47834,2.376367e-004,0.29999,60.00000,5.729158e-006
 225.93700,511.28456,2.432294e-004,0.29998,60.00000,5.718307e-006
 226.93700,511.09018,2.494716e-004,0.29999,60.00000,5.750028e-006
 227.93700,510.89420,2.552286e-004,0.29998,60.00000,5.750786e-006
 228.93700,510.69725,2.618752e-004,0.30001,60.00000,5.796973e-006
 229.93700,510.49889,2.683261e-004,0.30001,60.00000,5.829258e-006
 230.93700,510.29881,2.746674e-004,0.29999,60.00000,5.855291e-006
 231.93700,510.09853,2.815570e-004,0.30000,60.00000,5.901593e-006
 232.93700,509.89974,2.885723e-004,0.29998,60.00000,5.950261e-006
 233.93700,509.70260,2.950928e-004,0.30011,60.00000,5.975223e-006
 234.93700,509.50690,3.007241e-004,0.30001,60.00000,5.960344e-006
 235.93700,509.31248,3.071905e-004,0.30001,60.00000,5.980254e-006
 236.93700,509.11851,3.131591e-004,0.30002,60.00000,5.980392e-006
 237.93700,508.92404,3.191926e-004,0.30001,60.00000,5.981329e-006
 238.93700,508.72812,3.255950e-004,0.30000,60.00000,5.996769e-006
 239.93700,508.53054,3.317384e-004,0.29997,60.00000,6.001268e-006
 240.93700,508.33175,3.384774e-004,0.29999,60.00000,6.024911e-006
 241.93700,508.13224,3.445769e-004,0.29996,60.00000,6.027452e-006
 242.93700,507.93254,3.511086e-004,0.30000,60.00000,6.043468e-006
 243.93700,507.73342,3.571474e-004,0.30001,60.00000,6.043400e-006
 244.93700,507.53578,3.636399e-004,0.30001,60.00000,6.056121e-006
 245.93700,507.33976,3.692957e-004,0.30000,60.00000,6.045488e-006
 246.93700,507.14494,3.752566e-004,0.29999,60.00000,6.043000e-006
 247.93700,506.95066,3.806508e-004,0.29999,60.00000,6.025390e-006
 248.93700,506.75644,3.862807e-004,0.29997,60.00000,6.015099e-006
 249.93700,506.56149,3.921423e-004,0.30000,60.00000,6.011619e-006
 250.93700,506.36539,3.982032e-004,0.30000,60.00000,6.012508e-006
 251.93700,506.16806,4.048109e-004,0.30002,60.00000,6.026763e-006
 252.93700,505.96953,4.111830e-004,0.30001,60.00000,6.034917e-006
 253.93700,505.77026,4.178339e-004,0.30002,60.00000,6.048774e-006
 254.93700,505.57072,4.251301e-004,0.30005,60.00000,6.076914e-006
 255.93700,505.37223,4.320613e-004,0.29999,60.00000,6.095958e-006
 256.93700,505.17551,4.385147e-004,0.30001,60.00000,6.102671e-006
 257.93700,504.97997,4.447019e-004,0.30001,60.00000,6.104577e-006
 258.93700,504.78509,4.505279e-004,0.30002,60.00000,6.098381e-006
 259.93700,504.59006,4.592755e-004,0.29999,60.00000,6.151223e-006
 260.93700,504.39401,4.656999e-004,0.30005,60.00000,6.156441e-006
 261.93700,504.19667,4.717841e-004,0.30001,60.00000,6.156018e-006
 262.93700,503.99770,4.786442e-004,0.30002,60.00000,6.169064e-006
 263.93700,503.79778,4.852780e-004,0.30003,60.00000,6.177680e-006
 264.93700,503.59785,4.920392e-004,0.30002,60.00000,6.188351e-006
 265.93700,503.39922,4.985102e-004,0.30002,60.00000,6.194246e-006
 266.93700,503.20219,5.048206e-004,0.29997,60.00000,6.195824e-006
 267.93700,503.00585,5.111804e-004,0.30002,60.00000,6.197867e-006
 268.93700,502.80991,5.173950e-004,0.30001,60.00000,6.198814e-006
 269.93700,502.61390,5.229170e-004,0.29999,60.00000,6.187657e-006
 270.93700,502.41724,5.288631e-004,0.29996,60.00000,6.183421e-006
 271.93700,502.21941,5.355717e-004,0.30000,60.00000,6.191558e-006
 272.93700,502.02024,5.421703e-004,0.29999,60.00000,6.198024e-006
 273.93700,501.82065,5.489363e-004,0.30001,60.00000,6.206938e-006
 274.93700,501.62145,5.554548e-004,0.30000,60.00000,6.212156e-006
 275.93700,501.42309,5.617727e-004,0.30002,60.00000,6.214148e-006
 276.93700,501.22593,5.675779e-004,0.30001,60.00000,6.207589e-006
 277.93700,501.02974,5.726493e-004,0.30001,60.00000,6.190900e-006
 278.93700,500.83373,5.784533e-004,0.29996,60.00000,6.185439e-006
 279.93700,500.63754,5.847246e-004,0.30000,60.00000,6.185979e-006
 280.93700,500.44082,5.910216e-004,0.29999,60.00000,6.188000e-006
 281.93700,500.24334,5.979270e-004,0.29999,60.00000,6.197924e-006
 282.93700,500.04566,6.048755e-004,0.30000,60.00000,6.208368e-006
 283.93700,499.84834,6.117011e-004,0.30001,60.00000,6.216042e-006
 284.93700,499.65170,6.181992e-004,0.30000,60.00000,6.219888e-006
 285.93700,499.45558,6.246079e-004,0.30000,60.00000,6.222406e-006
 286.93700,499.25966,6.309510e-004,0.30000,60.00000,6.224231e-006
 287.93700,499.06413,6.368731e-004,0.30000,60.00000,6.220400e-006
 288.93700,498.86933,6.430173e-004,0.30003,60.00000,6.219628e-006
 289.93700,498.67442,6.494392e-004,0.30000,60.00000,6.221973e-006
 290.93700,498.47965,6.562274e-004,0.30001,60.00000,6.229058e-006
 291.93700,498.28505,6.629050e-004,0.29999,60.00000,6.234352e-006
 292.93700,498.09017,6.699848e-004,0.30001,60.00000,6.244206e-006
 293.93700,497.89448,6.767894e-004,0.29999,60.00000,6.251078e-006
 294.93700,497.69830,6.835099e-004,0.29999,60.00000,6.257032e-006
 295.93700,497.50197,6.902512e-004,0.29999,60.00000,6.262424e-006
 296.93700,497.30563,6.967802e-004,0.30000,60.00000,6.265494e-006
 297.93700,497.10962,7.031740e-004,0.29999,60.00000,6.267028e-006
 298.93700,496.91384,7.099437e-004,0.30001,60.00000,6.272410e-006
 299.93700,496.71821,7.163961e-004,0.29997,60.00000,6.274291e-006
 300.93700,496.52277,7.228432e-004,0.30000,60.00000,6.277003e-006
 301.93700,496.32769,7.294279e-004,0.29998,60.00000,6.280048e-006
 302.93700,496.13293,7.360380e-004,0.30000,60.00000,6.283246e-006
 303.93700,495.93860,7.426414e-004,0.29998,60.00000,6.286988e-006
 304.93700,495.74485,7.493049e-004,0.29999,60.00000,6.290794e-006
 305.93700,495.55115,7.560208e-004,0.29998,60.00000,6.295023e-006
 306.93700,495.35729,7.626076e-004,0.29999,60.00000,6.298169e-006
 307.93700,495.16305,7.694959e-004,0.29999,60.00000,6.304279e-006
 308.93700,494.96827,7.764529e-004,0.29997,60.00000,6.310768e-006
 309.93700,494.77288,7.827412e-004,0.30004,60.00000,6.310817e-006
 310.93700,494.57706,7.894428e-004,0.29999,60.00000,6.314353e-006
 311.93700,494.38091,7.956545e-004,0.30000,60.00000,6.313376e-006
 312.93700,494.18426,8.020894e-004,0.30002,60.00000,6.314545e-006
 313.93700,493.98762,8.086598e-004,0.30001,60.00000,6.317165e-006
 314.93700,493.79107,8.152842e-004,0.30004,60.00000,6.320204e-006
 315.93700,493.59447,8.218277e-004,0.29999,60.00000,6.322223e-006
 316.93700,493.39846,8.283250e-004,0.30000,60.00000,6.324110e-006
 317.93700,493.20315,8.350753e-004,0.29997,60.00000,6.327740e-006
 318.93700,493.00824,8.418384e-004,0.30002,60.00000,6.332030e-006
 319.93700,492.81368,8.499443e-004,0.30000,60.00000,6.348052e-006
 320.93700,492.61965,8.566494e-004,0.30000,60.00000,6.351014e-006
 321.93700,492.42569,8.602976e-004,0.29999,60.00000,6.327297e-006
 322.93700,492.23088,8.671596e-004,0.29998,60.00000,6.331723e-006
 323.93700,492.03578,8.735251e-004,0.29997,60.00000,6.332180e-006
 324.93700,491.84008,8.798219e-004,0.30001,60.00000,6.331629e-006
 325.93700,491.64353,8.868513e-004,0.30001,60.00000,6.337774e-006
 326.93700,491.44632,8.937299e-004,0.30001,60.00000,6.342319e-006
 327.93700,491.24830,9.006103e-004,0.30001,60.00000,6.346963e-006
 328.93700,491.04953,9.240229e-004,0.30001,60.00000,6.490398e-006
 329.93700,490.85097,9.308398e-004,0.30001,60.00000,6.493075e-006
 330.93700,490.65314,9.383115e-004,0.29997,60.00000,6.501298e-006
 331.93700,490.45605,9.454187e-004,0.29999,60.00000,6.506079e-006
 332.93700,490.26017,9.536389e-004,0.29997,60.00000,6.520286e-006
 333.93700,490.06559,9.610104e-004,0.29998,60.00000,6.527262e-006
 334.93700,489.87194,9.682524e-004,0.30000,60.00000,6.532488e-006
 335.93700,489.67862,9.755504e-004,0.30000,60.00000,6.538957e-006
 336.93700,489.48490,9.828513e-004,0.30001,60.00000,6.544793e-006
 337.93700,489.29085,9.901760e-004,0.29998,60.00000,6.550679e-006
 338.93700,489.09595,9.969472e-004,0.29998,60.00000,6.552557e-006
 339.93700,488.89941,1.004082e-003,0.29997,60.00000,6.557002e-006
 340.93700,488.70138,1.011379e-003,0.30000,60.00000,6.562620e-006
 341.93700,488.50232,1.018294e-003,0.30001,60.00000,6.565614e-006
 342.93700,488.30260,1.026172e-003,0.29998,60.00000,6.575462e-006
 343.93700,488.10286,1.033482e-003,0.30000,60.00000,6.580667e-006
 344.93700,487.90334,1.041407e-003,0.29996,60.00000,6.590665e-006
 345.93700,487.70448,1.048606e-003,0.30002,60.00000,6.595174e-006
 346.93700,487.50702,1.055350e-003,0.29999,60.00000,6.596305e-006
 347.93700,487.31052,1.062472e-003,0.30000,60.00000,6.600207e-006
 348.93700,487.11479,1.069873e-003,0.30001,60.00000,6.605814e-006
 349.93700,486.91989,1.077218e-003,0.30003,60.00000,6.611040e-006
 350.93700,486.72525,1.083906e-003,0.29996,60.00000,6.611652e-006
 351.93700,486.53023,1.093525e-003,0.29997,60.00000,6.633050e-006
 352.93700,486.33417,1.101667e-003,0.30000,60.00000,6.643431e-006
 353.93700,486.13680,1.110879e-003,0.29999,60.00000,6.661239e-006
 354.93700,485.93817,1.118332e-003,0.30001,60.00000,6.666676e-006
 355.93700,485.73844,1.125316e-003,0.29999,60.00000,6.668937e-006
 356.93700,485.53804,1.131016e-003,0.29999,60.00000,6.662441e-006
 357.93700,485.33777,1.137964e-003,0.30001,60.00000,6.664444e-006
 358.93700,485.13804,1.147814e-003,0.29998,60.00000,6.685710e-006
 359.93700,484.93914,1.156173e-003,0.29998,60.00000,6.696806e-006
 360.93700,484.74137,1.164056e-003,0.30003,60.00000,6.704565e-006
 361.93700,484.54464,1.171620e-003,0.29997,60.00000,6.710084e-006
 362.93700,484.34901,1.176429e-003,0.30001,60.00000,6.697912e-006
 363.93700,484.15400,1.184230e-003,0.30004,60.00000,6.704961e-006
 364.93700,483.95904,1.191943e-003,0.30000,60.00000,6.711715e-006
 365.93700,483.76374,1.199532e-003,0.29999,60.00000,6.717195e-006
 366.93700,483.56791,1.207232e-003,0.30000,60.00000,6.723551e-006
 367.93700,483.37159,1.214401e-003,0.29998,60.00000,6.726345e-006
 368.93700,483.17516,1.222076e-003,0.29999,60.00000,6.732326e-006
 369.93700,482.97853,1.229836e-003,0.30000,60.00000,6.738532e-006
 370.93700,482.78239,1.237110e-003,0.29998,60.00000,6.742227e-006
 371.93700,482.58676,1.244544e-003,0.30000,60.00000,6.746246e-006
 372.93700,482.39207,1.251916e-003,0.30002,60.00000,6.750210e-006
 373.93700,482.19795,1.259280e-003,0.30000,60.00000,6.753890e-006
 374.93700,482.00441,1.266940e-003,0.30001,60.00000,6.759283e-006
 375.93700,481.81133,1.274288e-003,0.30003,60.00000,6.762920e-006
 376.93700,481.61805,1.283139e-003,0.30000,60.00000,6.775503e-006
 377.93700,481.42471,1.290599e-003,0.30000,60.00000,6.779454e-006
 378.93700,481.23136,1.298071e-003,0.30000,60.00000,6.783500e-006
 379.93700,481.03719,1.305420e-003,0.30003,60.00000,6.786738e-006
 380.93700,480.84207,1.312828e-003,0.30002,60.00000,6.790380e-006
 381.93700,480.64634,1.319722e-003,0.29998,60.00000,6.791290e-006
 382.93700,480.45018,1.326396e-003,0.29999,60.00000,6.790539e-006
 383.93700,480.25349,1.333511e-003,0.29999,60.00000,6.792443e-006
 384.93700,480.05691,1.340694e-003,0.29999,60.00000,6.794722e-006
 385.93700,479.86134,1.351414e-003,0.30002,60.00000,6.816812e-006
 386.93700,479.66687,1.358591e-003,0.29998,60.00000,6.818913e-006
 387.93700,479.47323,1.367585e-003,0.30002,60.00000,6.831178e-006
 388.93700,479.28033,1.374995e-003,0.29997,60.00000,6.834566e-006
 389.93700,479.08783,1.382536e-003,0.30000,60.00000,6.838299e-006
 390.93700,478.89525,1.390190e-003,0.30000,60.00000,6.842859e-006
 391.93700,478.70206,1.398258e-003,0.30000,60.00000,6.849418e-006
 392.93700,478.50801,1.405532e-003,0.30003,60.00000,6.851806e-006
 393.93700,478.31293,1.413187e-003,0.30001,60.00000,6.856187e-006
 394.93700,478.11681,1.420236e-003,0.30001,60.00000,6.857342e-006
 395.93700,477.91978,1.427628e-003,0.30000,60.00000,6.860044e-006
 396.93700,477.72215,1.434666e-003,0.30000,60.00000,6.861188e-006
 397.93700,477.52452,1.442225e-003,0.29999,60.00000,6.864833e-006
 398.93700,477.32783,1.449971e-003,0.30001,60.00000,6.869469e-006
 399.93700,477.13165,1.457889e-003,0.30001,60.00000,6.874914e-006
 400.93700,476.93647,1.465284e-003,0.30002,60.00000,6.877838e-006
 401.93700,476.74216,1.472893e-003,0.30000,60.00000,6.881432e-006
 402.93700,476.54793,1.480219e-003,0.29999,60.00000,6.883836e-006
 403.93700,476.35344,1.487389e-003,0.29999,60.00000,6.885380e-006
 404.93700,476.15847,1.494567e-003,0.29997,60.00000,6.886751e-006
 405.93700,475.96272,1.501808e-003,0.29998,60.00000,6.888609e-006
 406.93700,475.76602,1.509127e-003,0.30002,60.00000,6.890669e-006
 407.93700,475.56831,1.516753e-003,0.29999,60.00000,6.894467e-006
 408.93700,475.36969,1.524700e-003,0.29997,60.00000,6.899659e-006
 409.93700,475.17071,1.532277e-003,0.29999,60.00000,6.903173e-006
 410.93700,474.97188,1.540016e-003,0.29996,60.00000,6.907365e-006
 411.93700,474.77403,1.548041e-003,0.29999,60.00000,6.912919e-006
 412.93700,474.57726,1.554846e-003,0.30000,60.00000,6.912359e-006
 413.93700,474.38160,1.562201e-003,0.30000,60.00000,6.914533e-006
 414.93700,474.18652,1.569687e-003,0.30001,60.00000,6.917422e-006
 415.93700,473.99180,1.577554e-003,0.30000,60.00000,6.921821e-006
 416.93700,473.79760,1.584563e-003,0.30000,60.00000,6.922163e-006
 417.93700,473.60286,1.591873e-003,0.30000,60.00000,6.924230e-006
 418.93700,473.40704,1.598780e-003,0.29999,60.00000,6.924090e-006
 419.93700,473.21033,1.605943e-003,0.30003,60.00000,6.925267e-006
 420.93700,473.01239,1.612090e-003,0.30000,60.00000,6.921632e-006
 421.93700,472.81344,1.619536e-003,0.29998,60.00000,6.924101e-006
 422.93700,472.61367,1.627048e-003,0.29997,60.00000,6.926629e-006
 423.93700,472.41402,1.633793e-003,0.29996,60.00000,6.925955e-006
 424.93700,472.21463,1.637659e-003,0.30008,60.00000,6.911652e-006
 425.93700,472.01588,1.644205e-003,0.30000,60.00000,6.910162e-006
 426.93700,471.81845,1.652308e-003,0.30001,60.00000,6.915483e-006
 427.93700,471.62190,1.660530e-003,0.30000,60.00000,6.921530e-006
 428.93700,471.42587,1.668067e-003,0.29997,60.00000,6.924438e-006
 429.93700,471.23024,1.675978e-003,0.29999,60.00000,6.928806e-006
 430.93700,471.03480,1.683681e-003,0.29999,60.00000,6.932225e-006
 431.93700,470.83931,1.692125e-003,0.29998,60.00000,6.939184e-006
 432.93700,470.64304,1.700132e-003,0.29996,60.00000,6.943854e-006
 433.93700,470.44576,1.707753e-003,0.30001,60.00000,6.946925e-006
 434.93700,470.24756,1.715973e-003,0.30000,60.00000,6.952598e-006
 435.93700,470.04876,1.724073e-003,0.29999,60.00000,6.957721e-006
 436.93700,469.84940,1.732178e-003,0.30002,60.00000,6.962632e-006
 437.93700,469.64966,1.740200e-003,0.30002,60.00000,6.967317e-006
 438.93700,469.45042,1.748034e-003,0.29999,60.00000,6.971315e-006
 439.93700,469.25192,1.755820e-003,0.30001,60.00000,6.974888e-006
 440.93700,469.05407,1.761743e-003,0.29999,60.00000,6.970191e-006
 441.93700,468.85733,1.769679e-003,0.29999,60.00000,6.974255e-006
 442.93700,468.66094,1.777219e-003,0.29997,60.00000,6.976780e-006
 443.93700,468.46489,1.785482e-003,0.30000,60.00000,6.982290e-006
 444.93700,468.26949,1.793180e-003,0.29998,60.00000,6.985230e-006
 445.93700,468.07413,1.801018e-003,0.30000,60.00000,6.988888e-006
 446.93700,467.87894,1.808434e-003,0.30002,60.00000,6.990763e-006
 447.93700,467.68383,1.815724e-003,0.30001,60.00000,6.992068e-006
 448.93700,467.48816,1.823492e-003,0.30004,60.00000,6.995277e-006
 449.93700,467.29247,1.830775e-003,0.30000,60.00000,6.996411e-006
 450.93700,467.09655,1.838593e-003,0.30001,60.00000,6.999681e-006
 451.93700,466.90026,1.845537e-003,0.29999,60.00000,6.999685e-006
 452.93700,466.70412,1.853244e-003,0.29997,60.00000,7.002614e-006
 453.93700,466.50785,1.860882e-003,0.30002,60.00000,7.004995e-006
 454.93700,466.31187,1.868321e-003,0.29998,60.00000,7.006856e-006
 455.93700,466.11664,1.875319e-003,0.29997,60.00000,7.006890e-006
 456.93700,465.92219,1.882939e-003,0.30002,60.00000,7.009381e-006
 457.93700,465.72790,1.891120e-003,0.30000,60.00000,7.014001e-006
 458.93700,465.53371,1.898988e-003,0.30002,60.00000,7.017512e-006
 459.93700,465.33960,1.905479e-003,0.30001,60.00000,7.015390e-006
 460.93700,465.14518,1.913629e-003,0.29999,60.00000,7.019954e-006
 461.93700,464.95049,1.921783e-003,0.29999,60.00000,7.024482e-006
 462.93700,464.75566,1.929225e-003,0.30001,60.00000,7.026015e-006
 463.93700,464.56021,1.937067e-003,0.30000,60.00000,7.029306e-006
 464.93700,464.36378,1.944725e-003,0.30000,60.00000,7.031734e-006
 465.93700,464.16697,1.952527e-003,0.29999,60.00000,7.034734e-006
 466.93700,463.97003,1.960073e-003,0.30002,60.00000,7.036674e-006
 467.93700,463.77309,1.967979e-003,0.30001,60.00000,7.040323e-006
 468.93700,463.57634,1.976122e-003,0.29999,60.00000,7.044442e-006
 469.93700,463.37971,1.984101e-003,0.30003,60.00000,7.047937e-006
 470.93700,463.18301,1.991791e-003,0.30000,60.00000,7.050415e-006
 471.93700,462.98631,1.999604e-003,0.29998,60.00000,7.053372e-006
 472.93700,462.78989,2.007972e-003,0.29996,60.00000,7.058378e-006
 473.93700,462.59378,2.016127e-003,0.29997,60.00000,7.062459e-006
 474.93700,462.39777,2.024309e-003,0.29997,60.00000,7.066741e-006
 475.93700,462.20172,2.032141e-003,0.30001,60.00000,7.069592e-006
 476.93700,462.00546,2.039645e-003,0.30000,60.00000,7.071289e-006
 477.93700,461.80896,2.047078e-003,0.30003,60.00000,7.072523e-006
 478.93700,461.61243,2.055428e-003,0.29999,60.00000,7.077238e-006
 479.93700,461.41558,2.063132e-003,0.29999,60.00000,7.079711e-006
 480.93700,461.21782,2.071196e-003,0.30000,60.00000,7.083314e-006
 481.93700,461.02003,2.079315e-003,0.29999,60.00000,7.087054e-006
 482.93700,460.82235,2.087273e-003,0.29995,60.00000,7.090288e-006
 483.93700,460.62477,2.095262e-003,0.30000,60.00000,7.093541e-006
 484.93700,460.42748,2.102720e-003,0.30000,60.00000,7.094917e-006
 485.93700,460.23010,2.110628e-003,0.29999,60.00000,7.097788e-006
 486.93700,460.03294,2.117970e-003,0.29997,60.00000,7.098753e-006
 487.93700,459.83559,2.125625e-003,0.29998,60.00000,7.100688e-006
 488.93700,459.63779,2.130643e-003,0.30000,60.00000,7.093165e-006
 489.93700,459.43982,2.137744e-003,0.30000,60.00000,7.093375e-006
 490.93700,459.24193,2.145547e-003,0.30002,60.00000,7.095859e-006
 491.93700,459.04394,2.153699e-003,0.30000,60.00000,7.099655e-006
 492.93700,458.84561,2.162211e-003,0.30000,60.00000,7.104581e-006
 493.93700,458.64719,2.170747e-003,0.29999,60.00000,7.109562e-006
 494.93700,458.44846,2.179085e-003,0.29999,60.00000,7.113804e-006
 495.93700,458.24952,2.187371e-003,0.30001,60.00000,7.118066e-006
 496.93700,458.05067,2.195702e-003,0.29996,60.00000,7.122164e-006
 497.93700,457.85210,2.204142e-003,0.30002,60.00000,7.126795e-006
 498.93700,457.65342,2.212312e-003,0.30001,60.00000,7.130365e-006
 499.93700,457.45510,2.220423e-003,0.30001,60.00000,7.133828e-006
 500.93700,457.25714,2.228705e-003,0.30000,60.00000,7.137855e-006
 501.93700,457.05889,2.236616e-003,0.30002,60.00000,7.140379e-006
 502.93700,456.86063,2.244660e-003,0.29998,60.00000,7.143438e-006
 503.93700,456.66208,2.252830e-003,0.30001,60.00000,7.146889e-006
 504.93700,456.46300,2.260523e-003,0.30001,60.00000,7.148752e-006
 505.93700,456.26351,2.266603e-003,0.29997,60.00000,7.145178e-006
 506.93700,456.06375,2.274722e-003,0.30000,60.00000,7.148531e-006
 507.93700,455.86417,2.282797e-003,0.29999,60.00000,7.151555e-006
 508.93700,455.66439,2.290560e-003,0.29999,60.00000,7.153604e-006
 509.93700,455.46445,2.297567e-003,0.30000,60.00000,7.153283e-006
 510.93700,455.26467,2.305356e-003,0.30000,60.00000,7.155366e-006
 511.93700,455.06493,2.313327e-003,0.30001,60.00000,7.157966e-006
 512.93700,454.86527,2.321171e-003,0.30001,60.00000,7.160246e-006
 513.93700,454.66524,2.329365e-003,0.30002,60.00000,7.163637e-006
 514.93700,454.46527,2.337494e-003,0.29999,60.00000,7.166804e-006
 515.93700,454.26540,2.345454e-003,0.29998,60.00000,7.169289e-006
 516.93700,454.06602,2.353348e-003,0.30000,60.00000,7.171706e-006
 517.93700,453.86746,2.360663e-003,0.30003,60.00000,7.172213e-006
 518.93700,453.66974,2.369061e-003,0.29999,60.00000,7.176363e-006
 519.93700,453.47263,2.377078e-003,0.30000,60.00000,7.178822e-006
 520.93700,453.27597,2.385340e-003,0.30005,60.00000,7.182346e-006
 521.93700,453.08003,2.393542e-003,0.30004,60.00000,7.185681e-006
 522.93700,452.88453,2.402098e-003,0.30007,60.00000,7.189954e-006
 523.93700,452.68936,2.411059e-003,0.30000,60.00000,7.195690e-006
 524.93700,452.49422,2.418673e-003,0.30001,60.00000,7.196937e-006
 525.93700,452.29857,2.426828e-003,0.30000,60.00000,7.199918e-006
 526.93700,452.10207,2.434931e-003,0.30000,60.00000,7.202785e-006
 527.93700,451.90462,2.442808e-003,0.29998,60.00000,7.205114e-006
 528.93700,451.70595,2.450780e-003,0.29998,60.00000,7.207348e-006
 529.93700,451.50674,2.457780e-003,0.30001,60.00000,7.206851e-006
 530.93700,451.30753,2.465774e-003,0.29999,60.00000,7.209162e-006
 531.93700,451.10863,2.473868e-003,0.29999,60.00000,7.211958e-006
 532.93700,450.91018,2.482568e-003,0.29999,60.00000,7.216635e-006
 533.93700,450.71264,2.490509e-003,0.30001,60.00000,7.218934e-006
 534.93700,450.51580,2.499280e-003,0.29999,60.00000,7.223506e-006
 535.93700,450.31950,2.507467e-003,0.30001,60.00000,7.226640e-006
 536.93700,450.12340,2.515830e-003,0.29999,60.00000,7.230082e-006
 537.93700,449.92732,2.523903e-003,0.30003,60.00000,7.232584e-006
 538.93700,449.73107,2.532447e-003,0.29995,60.00000,7.236532e-006
 539.93700,449.53424,2.540698e-003,0.30000,60.00000,7.239614e-006
 540.93700,449.33645,2.547771e-003,0.29998,60.00000,7.239135e-006
 541.93700,449.13786,2.556123e-003,0.29998,60.00000,7.242474e-006
 542.93700,448.93845,2.564563e-003,0.29999,60.00000,7.246159e-006
 543.93700,448.73881,2.572884e-003,0.29997,60.00000,7.249361e-006
 544.93700,448.53907,2.581939e-003,0.29998,60.00000,7.254754e-006
 545.93700,448.33890,2.590398e-003,0.30001,60.00000,7.258255e-006
 546.93700,448.13877,2.599172e-003,0.29996,60.00000,7.262671e-006
 547.93700,447.93876,2.608132e-003,0.30000,60.00000,7.267767e-006
 548.93700,447.73873,2.616299e-003,0.30000,60.00000,7.270594e-006
 549.93700,447.53891,2.624451e-003,0.30000,60.00000,7.273072e-006
 550.93700,447.33951,2.633375e-003,0.29999,60.00000,7.277947e-006
 551.93700,447.14023,2.641878e-003,0.29999,60.00000,7.281496e-006
 552.93700,446.94118,2.650968e-003,0.29998,60.00000,7.286757e-006
 553.93700,446.74244,2.659617e-003,0.29997,60.00000,7.290724e-006
 554.93700,446.54341,2.668219e-003,0.29999,60.00000,7.294521e-006
 555.93700,446.34380,2.676625e-003,0.30000,60.00000,7.297709e-006
 556.93700,446.14373,2.684653e-003,0.29998,60.00000,7.299784e-006
 557.93700,445.94341,2.693536e-003,0.29999,60.00000,7.304280e-006
 558.93700,445.74286,2.702564e-003,0.29997,60.00000,7.309209e-006
 559.93700,445.54220,2.711110e-003,0.29999,60.00000,7.312883e-006
 560.93700,445.34176,2.718424e-003,0.30001,60.00000,7.312896e-006
 561.93700,445.14110,2.727267e-003,0.29995,60.00000,7.317095e-006
 562.93700,444.94053,2.735812e-003,0.29998,60.00000,7.320700e-006
 563.93700,444.74048,2.744159e-003,0.29998,60.00000,7.323687e-006
 564.93700,444.54045,2.752842e-003,0.29998,60.00000,7.327378e-006
 565.93700,444.33989,2.761528e-003,0.29999,60.00000,7.331265e-006
 566.93700,444.13939,2.770171e-003,0.30000,60.00000,7.334889e-006
 567.93700,443.93910,2.778722e-003,0.30000,60.00000,7.338340e-006
 568.93700,443.73828,2.791745e-003,0.30000,60.00000,7.354096e-006
 569.93700,443.53715,2.800907e-003,0.30000,60.00000,7.359131e-006
 570.93700,443.33588,2.809178e-003,0.29998,60.00000,7.361676e-006
 571.93700,443.13437,2.818030e-003,0.29998,60.00000,7.365843e-006
 572.93700,442.93279,2.827035e-003,0.30000,60.00000,7.370285e-006
 573.93700,442.73162,2.836138e-003,0.30002,60.00000,7.375117e-006
 574.93700,442.53035,2.844966e-003,0.30002,60.00000,7.379065e-006
 575.93700,442.32955,2.853926e-003,0.29995,60.00000,7.383343e-006
 576.93700,442.12935,2.862496e-003,0.29998,60.00000,7.386655e-006
 577.93700,441.92882,2.870873e-003,0.29999,60.00000,7.389314e-006
 578.93700,441.72795,2.879268e-003,0.30001,60.00000,7.392023e-006
 579.93700,441.52669,2.887825e-003,0.30000,60.00000,7.395099e-006
 580.93700,441.32433,2.896087e-003,0.29990,60.00000,7.397481e-006
 581.93700,441.12039,2.905330e-003,0.30000,60.00000,7.402437e-006
 582.93700,440.91535,2.914790e-003,0.29997,60.00000,7.407952e-006
 583.93700,440.71002,2.924101e-003,0.30000,60.00000,7.413038e-006
 584.93700,440.50498,2.933039e-003,0.30004,60.00000,7.417131e-006
 585.93700,440.30076,2.942276e-003,0.29999,60.00000,7.422029e-006
 586.93700,440.09743,2.951814e-003,0.30000,60.00000,7.427615e-006
 587.93700,439.89527,2.961013e-003,0.30001,60.00000,7.432352e-006
 588.93700,439.69472,2.969251e-003,0.30001,60.00000,7.434485e-006
 589.93700,439.49536,2.977661e-003,0.29999,60.00000,7.436995e-006
 590.93700,439.29705,2.986774e-003,0.29997,60.00000,7.441508e-006
 591.93700,439.09897,2.995456e-003,0.29999,60.00000,7.444652e-006
 592.93700,438.90037,3.004079e-003,0.29999,60.00000,7.447618e-006
 593.93700,438.70135,3.012561e-003,0.29999,60.00000,7.450405e-006
 594.93700,438.50243,3.021340e-003,0.29998,60.00000,7.453874e-006
 595.93700,438.30362,3.029712e-003,0.29998,60.00000,7.456313e-006
 596.93700,438.10500,3.038138e-003,0.30000,60.00000,7.458766e-006
 597.93700,437.90625,3.046923e-003,0.30000,60.00000,7.462139e-006
 598.93700,437.70705,3.055272e-003,0.30000,60.00000,7.464450e-006
 599.93700,437.50810,3.063763e-003,0.29997,60.00000,7.467090e-006
 600.93700,437.30891,3.072166e-003,0.30003,60.00000,7.469420e-006
 601.93700,437.10898,3.080595e-003,0.29999,60.00000,7.471886e-006
 602.93700,436.90879,3.089333e-003,0.30000,60.00000,7.475143e-006
 603.93700,436.70822,3.091916e-003,0.30001,60.00000,7.462686e-006
 604.93700,436.50725,3.100716e-003,0.30000,60.00000,7.466099e-006
 605.93700,436.30658,3.109304e-003,0.29999,60.00000,7.468931e-006
 606.93700,436.10617,3.118364e-003,0.30002,60.00000,7.472861e-006
 607.93700,435.90572,3.127039e-003,0.30002,60.00000,7.475995e-006
 608.93700,435.70577,3.133601e-003,0.29998,60.00000,7.473686e-006
 609.93700,435.50669,3.143129e-003,0.30009,60.00000,7.478823e-006
 610.93700,435.30794,3.149665e-003,0.30002,60.00000,7.476459e-006
 611.93700,435.10901,3.159011e-003,0.30001,60.00000,7.481081e-006
 612.93700,434.90939,3.163243e-003,0.30000,60.00000,7.473001e-006
 613.93700,434.70868,3.172624e-003,0.29996,60.00000,7.477760e-006
 614.93700,434.50692,3.182286e-003,0.29997,60.00000,7.483102e-006
 615.93700,434.30417,3.191839e-003,0.29998,60.00000,7.488237e-006
 616.93700,434.10060,3.201434e-003,0.29999,60.00000,7.493416e-006
 617.93700,433.89643,3.210927e-003,0.30001,60.00000,7.498373e-006
 618.93700,433.69204,3.220706e-003,0.30000,60.00000,7.503953e-006
 619.93700,433.48780,3.228405e-003,0.29998,60.00000,7.504414e-006
 620.93700,433.28359,3.237903e-003,0.29997,60.00000,7.509268e-006
 621.93700,433.07937,3.247783e-003,0.29999,60.00000,7.515019e-006
 622.93700,432.87507,3.257795e-003,0.29999,60.00000,7.521063e-006
 623.93700,432.67129,3.272235e-003,0.29998,60.00000,7.537746e-006
 624.93700,432.46802,3.282287e-003,0.30000,60.00000,7.543916e-006
 625.93700,432.26530,3.291953e-003,0.30001,60.00000,7.548967e-006
 626.93700,432.06366,3.301312e-003,0.30001,60.00000,7.553271e-006
 627.93700,431.86242,3.307863e-003,0.29995,60.00000,7.550902e-006
 628.93700,431.66134,3.315807e-003,0.30000,60.00000,7.551885e-006
 629.93700,431.46031,3.325260e-003,0.30000,60.00000,7.556363e-006
 630.93700,431.25859,3.334379e-003,0.29997,60.00000,7.560041e-006
 631.93700,431.05581,3.339075e-003,0.30001,60.00000,7.553235e-006
 632.93700,430.85183,3.348514e-003,0.30004,60.00000,7.557725e-006
 633.93700,430.64760,3.358350e-003,0.30000,60.00000,7.563050e-006
 634.93700,430.44426,3.367946e-003,0.30000,60.00000,7.567834e-006
 635.93700,430.24238,3.377564e-003,0.29999,60.00000,7.572764e-006
 636.93700,430.04200,3.387910e-003,0.29999,60.00000,7.579246e-006
 637.93700,429.84261,3.397839e-003,0.29999,60.00000,7.584744e-006
 638.93700,429.64362,3.407790e-003,0.29999,60.00000,7.590256e-006
 639.93700,429.44435,3.418250e-003,0.29999,60.00000,7.596885e-006
 640.93700,429.24434,3.428062e-003,0.30000,60.00000,7.602012e-006
 641.93700,429.04352,3.438003e-003,0.30001,60.00000,7.607437e-006
 642.93700,428.84150,3.447651e-003,0.30002,60.00000,7.612102e-006
 643.93700,428.63820,3.457473e-003,0.29999,60.00000,7.617156e-006
 644.93700,428.43409,3.467053e-003,0.30001,60.00000,7.621717e-006
 645.93700,428.22906,3.476731e-003,0.29999,60.00000,7.626500e-006
 646.93700,428.02302,3.486719e-003,0.29999,60.00000,7.631825e-006
 647.93700,427.81690,3.496646e-003,0.29996,60.00000,7.637173e-006
 648.93700,427.61170,3.506890e-003,0.29998,60.00000,7.643039e-006
 649.93700,427.40811,3.516829e-003,0.29994,60.00000,7.648350e-006
 650.93700,427.20661,3.527210e-003,0.29999,60.00000,7.654428e-006
 651.93700,427.00662,3.537209e-003,0.29997,60.00000,7.659842e-006
 652.93700,426.80736,3.546698e-003,0.29999,60.00000,7.663913e-006
 653.93700,426.60914,3.556455e-003,0.30000,60.00000,7.668561e-006
 654.93700,426.41119,3.565963e-003,0.29998,60.00000,7.672805e-006
 655.93700,426.21274,3.575945e-003,0.29999,60.00000,7.677907e-006
 656.93700,426.01384,3.585554e-003,0.30001,60.00000,7.682211e-006
 657.93700,425.81403,3.595399e-003,0.29996,60.00000,7.687067e-006
 658.93700,425.61381,3.605294e-003,0.30000,60.00000,7.692022e-006
 659.93700,425.41364,3.615311e-003,0.30000,60.00000,7.697123e-006
 660.93700,425.21358,3.625193e-003,0.29997,60.00000,7.701961e-006
 661.93700,425.01407,3.635090e-003,0.30000,60.00000,7.706882e-006
 662.93700,424.81511,3.644924e-003,0.30000,60.00000,7.711582e-006
 663.93700,424.61744,3.654832e-003,0.29998,60.00000,7.716443e-006
 664.93700,424.42122,3.664864e-003,0.29997,60.00000,7.721511e-006
 665.93700,424.22573,3.674923e-003,0.29999,60.00000,7.726635e-006
 666.93700,424.03058,3.684773e-003,0.30002,60.00000,7.731224e-006
 667.93700,423.83527,3.695031e-003,0.30002,60.00000,7.736712e-006
 668.93700,423.63953,3.705011e-003,0.30000,60.00000,7.741660e-006
 669.93700,423.44294,3.715176e-003,0.30000,60.00000,7.746949e-006
 670.93700,423.24486,3.726017e-003,0.30001,60.00000,7.753694e-006
 671.93700,423.04536,3.736798e-003,0.29999,60.00000,7.760222e-006
 672.93700,422.84508,3.746849e-003,0.29999,60.00000,7.765175e-006
 673.93700,422.64421,3.756577e-003,0.30002,60.00000,7.769388e-006
 674.93700,422.44359,3.765908e-003,0.29999,60.00000,7.772739e-006
 675.93700,422.24400,3.775662e-003,0.29998,60.00000,7.777044e-006
 676.93700,422.04516,3.784972e-003,0.29998,60.00000,7.780322e-006
 677.93700,421.84564,3.795170e-003,0.30001,60.00000,7.785431e-006
 678.93700,421.64510,3.805272e-003,0.29998,60.00000,7.790372e-006
 679.93700,421.44338,3.815352e-003,0.30001,60.00000,7.795174e-006
 680.93700,421.24051,3.825315e-003,0.30001,60.00000,7.799892e-006
 681.93700,421.03761,3.835246e-003,0.29998,60.00000,7.804386e-006
 682.93700,420.83506,3.845428e-003,0.30006,60.00000,7.809391e-006
 683.93700,420.63275,3.856284e-003,0.29999,60.00000,7.815875e-006
 684.93700,420.43114,3.867356e-003,0.29997,60.00000,7.822661e-006
 685.93700,420.23050,3.878294e-003,0.30001,60.00000,7.829167e-006
 686.93700,420.03031,3.888764e-003,0.30001,60.00000,7.834792e-006
 687.93700,419.83039,3.899560e-003,0.29997,60.00000,7.840956e-006
 688.93700,419.63024,3.909988e-003,0.30002,60.00000,7.846387e-006
 689.93700,419.42939,3.921270e-003,0.30001,60.00000,7.853503e-006
 690.93700,419.22747,3.931861e-003,0.30002,60.00000,7.859211e-006
 691.93700,419.02439,3.942551e-003,0.29999,60.00000,7.865141e-006
 692.93700,418.82123,3.953172e-003,0.29998,60.00000,7.870792e-006
 693.93700,418.61819,3.962738e-003,0.30001,60.00000,7.874249e-006
 694.93700,418.41572,3.973671e-003,0.30000,60.00000,7.880706e-006
 695.93700,418.21421,3.984690e-003,0.30001,60.00000,7.887107e-006
 696.93700,418.01359,3.995524e-003,0.29999,60.00000,7.893107e-006
 697.93700,417.81382,4.005951e-003,0.30003,60.00000,7.898331e-006
 698.93700,417.61469,4.016453e-003,0.29996,60.00000,7.903672e-006
 699.93700,417.41633,4.026791e-003,0.29999,60.00000,7.908594e-006
 700.93700,417.21827,4.036966e-003,0.30000,60.00000,7.913122e-006
 701.93700,417.01965,4.047119e-003,0.30000,60.00000,7.917752e-006
 702.93700,416.82015,4.057291e-003,0.29996,60.00000,7.922377e-006
 703.93700,416.61959,4.067155e-003,0.30000,60.00000,7.926326e-006
 704.93700,416.41796,4.076950e-003,0.30001,60.00000,7.929976e-006
 705.93700,416.21524,4.086986e-003,0.30000,60.00000,7.934286e-006
 706.93700,416.01159,4.097515e-003,0.29997,60.00000,7.939524e-006
 707.93700,415.80749,4.107844e-003,0.30000,60.00000,7.944308e-006
 708.93700,415.60319,4.118415e-003,0.29999,60.00000,7.949585e-006
 709.93700,415.39924,4.128876e-003,0.29999,60.00000,7.954591e-006
 710.93700,415.19595,4.139701e-003,0.29999,60.00000,7.960301e-006
 711.93700,414.99352,4.150257e-003,0.29999,60.00000,7.965455e-006
 712.93700,414.79221,4.161007e-003,0.30000,60.00000,7.971089e-006
 713.93700,414.59190,4.171780e-003,0.30001,60.00000,7.976608e-006
 714.93700,414.39228,4.182568e-003,0.30001,60.00000,7.982154e-006
 715.93700,414.19322,4.193306e-003,0.30003,60.00000,7.987664e-006
 716.93700,413.99421,4.203796e-003,0.29997,60.00000,7.992558e-006
 717.93700,413.79524,4.209954e-003,0.29998,60.00000,7.988885e-006
 718.93700,413.59604,4.220235e-003,0.30001,60.00000,7.993434e-006
 719.93700,413.39614,4.230824e-003,0.29999,60.00000,7.998531e-006
 720.93700,413.19607,4.241493e-003,0.29998,60.00000,8.003738e-006
 721.93700,412.99678,4.252203e-003,0.30001,60.00000,8.009107e-006
 722.93700,412.79805,4.262994e-003,0.29998,60.00000,8.014438e-006
 723.93700,412.59938,4.273618e-003,0.29999,60.00000,8.019498e-006
 724.93700,412.40121,4.283913e-003,0.29997,60.00000,8.024010e-006
 725.93700,412.20318,4.294269e-003,0.29999,60.00000,8.028484e-006
 726.93700,412.00484,4.304023e-003,0.30001,60.00000,8.031855e-006
 727.93700,411.80635,4.314366e-003,0.29993,60.00000,8.036345e-006
 728.93700,411.60762,4.324891e-003,0.29997,60.00000,8.041073e-006
 729.93700,411.40826,4.335603e-003,0.29996,60.00000,8.046226e-006
 730.93700,411.20867,4.346621e-003,0.29999,60.00000,8.051951e-006
 731.93700,411.00892,4.357499e-003,0.30001,60.00000,8.057294e-006
 732.93700,410.80882,4.368551e-003,0.29999,60.00000,8.063042e-006
 733.93700,410.60902,4.378981e-003,0.30002,60.00000,8.067591e-006
 734.93700,410.40966,4.389388e-003,0.30001,60.00000,8.072069e-006
 735.93700,410.21032,4.400377e-003,0.30000,60.00000,8.077602e-006
 736.93700,410.01135,4.411137e-003,0.29997,60.00000,8.082607e-006
 737.93700,409.81268,4.421570e-003,0.29996,60.00000,8.087118e-006
 738.93700,409.61380,4.432075e-003,0.29999,60.00000,8.091661e-006
 739.93700,409.41477,4.442337e-003,0.30000,60.00000,8.095787e-006
 740.93700,409.21504,4.450961e-003,0.29998,60.00000,8.096825e-006
 741.93700,409.01420,4.461672e-003,0.29998,60.00000,8.101708e-006
 742.93700,408.81235,4.472467e-003,0.30000,60.00000,8.106751e-006
 743.93700,408.60993,4.482712e-003,0.29999,60.00000,8.110795e-006
 744.93700,408.40764,4.493394e-003,0.30002,60.00000,8.115567e-006
 745.93700,408.20601,4.503889e-003,0.29999,60.00000,8.120046e-006
 746.93700,408.00491,4.514770e-003,0.29996,60.00000,8.125132e-006
 747.93700,407.80448,4.525532e-003,0.30000,60.00000,8.130063e-006
 748.93700,407.60498,4.536483e-003,0.30002,60.00000,8.135327e-006
 749.93700,407.40632,4.547461e-003,0.30013,60.00000,8.140547e-006
 750.93700,407.20775,4.558338e-003,0.29994,60.00000,8.145657e-006
 751.93700,407.00867,4.569650e-003,0.30000,60.00000,8.151493e-006
 752.93700,406.80915,4.580808e-003,0.30002,60.00000,8.156980e-006
 753.93700,406.60859,4.591360e-003,0.29999,60.00000,8.161462e-006
 754.93700,406.40646,4.602534e-003,0.30002,60.00000,8.166893e-006
 755.93700,406.20231,4.613369e-003,0.29998,60.00000,8.171821e-006
 756.93700,405.99688,4.624848e-003,0.29993,60.00000,8.177881e-006
 757.93700,405.79236,4.636148e-003,0.29996,60.00000,8.183548e-006
 758.93700,405.58950,4.647255e-003,0.29997,60.00000,8.188860e-006
 759.93700,405.38779,4.658124e-003,0.29997,60.00000,8.193804e-006
 760.93700,405.18635,4.669457e-003,0.30000,60.00000,8.199442e-006
 761.93700,404.98479,4.680543e-003,0.30001,60.00000,8.204693e-006
 762.93700,404.78288,4.691493e-003,0.29998,60.00000,8.209666e-006
 763.93700,404.58041,4.702762e-003,0.30001,60.00000,8.215141e-006
 764.93700,404.37754,4.714329e-003,0.29997,60.00000,8.221253e-006
 765.93700,404.17464,4.725603e-003,0.30000,60.00000,8.226685e-006
 766.93700,403.97164,4.736600e-003,0.29996,60.00000,8.231623e-006
 767.93700,403.76872,4.747602e-003,0.29999,60.00000,8.236613e-006
 768.93700,403.56574,4.758237e-003,0.29998,60.00000,8.240932e-006
 769.93700,403.36237,4.768551e-003,0.29998,60.00000,8.244652e-006
 770.93700,403.15910,4.779605e-003,0.29994,60.00000,8.249653e-006
 771.93700,402.95644,4.791285e-003,0.30001,60.00000,8.255737e-006
 772.93700,402.75458,4.802431e-003,0.29999,60.00000,8.260858e-006
 773.93700,402.55346,4.813628e-003,0.29995,60.00000,8.266120e-006
 774.93700,402.35272,4.825736e-003,0.29999,60.00000,8.272873e-006
 775.93700,402.15209,4.837115e-003,0.29996,60.00000,8.278367e-006
 776.93700,401.95172,4.848678e-003,0.29999,60.00000,8.284190e-006
 777.93700,401.75222,4.860296e-003,0.30001,60.00000,8.290037e-006
 778.93700,401.55321,4.871454e-003,0.30004,60.00000,8.295114e-006
 779.93700,401.35422,4.882500e-003,0.30004,60.00000,8.299938e-006
 780.93700,401.15493,4.893986e-003,0.30004,60.00000,8.305487e-006
 781.93700,400.95496,4.905265e-003,0.29999,60.00000,8.310670e-006
 782.93700,400.75479,4.916487e-003,0.30001,60.00000,8.315774e-006
 783.93700,400.55476,4.927988e-003,0.29997,60.00000,8.321360e-006
 784.93700,400.35512,4.939361e-003,0.29996,60.00000,8.326624e-006
 785.93700,400.15603,4.950454e-003,0.29995,60.00000,8.331448e-006
 786.93700,399.95756,4.961895e-003,0.30003,60.00000,8.336819e-006
 787.93700,399.75997,4.972913e-003,0.29999,60.00000,8.341494e-006
 788.93700,399.56238,4.983927e-003,0.30001,60.00000,8.346073e-006
 789.93700,399.36343,4.994841e-003,0.30002,60.00000,8.350485e-006
 790.93700,399.16351,5.006438e-003,0.29992,60.00000,8.356107e-006
 791.93700,398.96257,5.019472e-003,0.30001,60.00000,8.364142e-006
 792.93700,398.76045,5.031033e-003,0.30001,60.00000,8.369652e-006
 793.93700,398.55878,5.042852e-003,0.30005,60.00000,8.375528e-006
 794.93700,398.35817,5.054464e-003,0.29997,60.00000,8.381041e-006
 795.93700,398.15833,5.065789e-003,0.29998,60.00000,8.386067e-006
 796.93700,397.95844,5.076887e-003,0.30004,60.00000,8.390704e-006
 797.93700,397.75796,5.088166e-003,0.29997,60.00000,8.395599e-006
 798.93700,397.55664,5.099679e-003,0.29993,60.00000,8.400862e-006
 799.93700,397.35440,5.110748e-003,0.29997,60.00000,8.405448e-006
 800.93700,397.15188,5.122192e-003,0.30001,60.00000,8.410603e-006
 801.93700,396.94946,5.133851e-003,0.30001,60.00000,8.416086e-006
 802.93700,396.74731,5.145482e-003,0.30001,60.00000,8.421508e-006
 803.93700,396.54527,5.156805e-003,0.30003,60.00000,8.426373e-006
 804.93700,396.34327,5.168540e-003,0.30003,60.00000,8.431927e-006
 805.93700,396.14189,5.179973e-003,0.29998,60.00000,8.436978e-006
 806.93700,395.94099,5.191771e-003,0.29998,60.00000,8.442572e-006
 807.93700,395.74013,5.204032e-003,0.30004,60.00000,8.449013e-006
 808.93700,395.53934,5.217206e-003,0.30005,60.00000,8.456823e-006
 809.93700,395.33877,5.229645e-003,0.30002,60.00000,8.463532e-006
 810.93700,395.13843,5.242221e-003,0.30000,60.00000,8.470359e-006
 811.93700,394.93839,5.254602e-003,0.30003,60.00000,8.476853e-006
 812.93700,394.73845,5.266085e-003,0.29996,60.00000,8.481847e-006
 813.93700,394.53806,5.278210e-003,0.29997,60.00000,8.487865e-006
 814.93700,394.33708,5.290727e-003,0.29999,60.00000,8.494590e-006
 815.93700,394.13554,5.303159e-003,0.30002,60.00000,8.500987e-006
 816.93700,393.93330,5.320213e-003,0.30002,60.00000,8.515075e-006
 817.93700,393.73095,5.334089e-003,0.30001,60.00000,8.523954e-006
 818.93700,393.52898,5.346317e-003,0.30001,60.00000,8.529977e-006
 819.93700,393.32781,5.358180e-003,0.29999,60.00000,8.535476e-006
 820.93700,393.12729,5.370182e-003,0.30000,60.00000,8.541149e-006
 821.93700,392.92629,5.382143e-003,0.30005,60.00000,8.546745e-006
 822.93700,392.72479,5.394106e-003,0.30003,60.00000,8.552341e-006
 823.93700,392.52318,5.406088e-003,0.29999,60.00000,8.557896e-006
 824.93700,392.32120,5.417840e-003,0.30000,60.00000,8.563066e-006
 825.93700,392.11877,5.430047e-003,0.30002,60.00000,8.568973e-006
 826.93700,391.91637,5.441627e-003,0.30011,60.00000,8.573881e-006
 827.93700,391.71374,5.454258e-003,0.29998,60.00000,8.580434e-006
 828.93700,391.51082,5.467408e-003,0.30001,60.00000,8.587874e-006
 829.93700,391.30882,5.480158e-003,0.30001,60.00000,8.594580e-006
 830.93700,391.10792,5.492461e-003,0.29995,60.00000,8.600531e-006
 831.93700,390.90700,5.504623e-003,0.30001,60.00000,8.606250e-006
 832.93700,390.70513,5.516463e-003,0.30001,60.00000,8.611457e-006
 833.93700,390.50238,5.528803e-003,0.30004,60.00000,8.617417e-006
 834.93700,390.29917,5.542093e-003,0.30000,60.00000,8.624938e-006
 835.93700,390.09600,5.554355e-003,0.29997,60.00000,8.630759e-006
 836.93700,389.89297,5.566024e-003,0.30001,60.00000,8.635519e-006
 837.93700,389.69030,5.579060e-003,0.30003,60.00000,8.642513e-006
 838.93700,389.48864,5.591333e-003,0.30006,60.00000,8.648333e-006
 839.93700,389.28771,5.603473e-003,0.30000,60.00000,8.653858e-006
 840.93700,389.08734,5.615332e-003,0.30001,60.00000,8.658979e-006
 841.93700,388.88753,5.627583e-003,0.30001,60.00000,8.664593e-006
 842.93700,388.68732,5.640204e-003,0.29998,60.00000,8.670892e-006
 843.93700,388.48712,5.652525e-003,0.30003,60.00000,8.676712e-006
 844.93700,388.28741,5.665797e-003,0.30006,60.00000,8.683881e-006
 845.93700,388.08738,5.691884e-003,0.30000,60.00000,8.711255e-006
 846.93700,387.88695,5.703887e-003,0.30002,60.00000,8.716464e-006
 847.93700,387.68711,5.715851e-003,0.30005,60.00000,8.721508e-006
 848.93700,387.48853,5.727719e-003,0.29999,60.00000,8.726441e-006
 849.93700,387.29044,5.739514e-003,0.29997,60.00000,8.731258e-006
 850.93700,387.09285,5.751157e-003,0.30004,60.00000,8.735842e-006
 851.93700,386.89560,5.761340e-003,0.30003,60.00000,8.738039e-006
 852.93700,386.69816,5.773064e-003,0.29997,60.00000,8.742622e-006
 853.93700,386.50078,5.785292e-003,0.29998,60.00000,8.748110e-006
 854.93700,386.30340,5.797419e-003,0.30004,60.00000,8.753272e-006
 855.93700,386.10513,5.809472e-003,0.30002,60.00000,8.758420e-006
 856.93700,385.90566,5.821287e-003,0.30000,60.00000,8.763162e-006
 857.93700,385.70540,5.833158e-003,0.29991,60.00000,8.767935e-006
 858.93700,385.50441,5.844877e-003,0.29998,60.00000,8.772516e-006
 859.93700,385.30220,5.856198e-003,0.30001,60.00000,8.776435e-006
 860.93700,385.09878,5.867777e-003,0.30001,60.00000,8.780636e-006
 861.93700,384.89465,5.879065e-003,0.30001,60.00000,8.784556e-006
 862.93700,384.69055,5.891169e-003,0.29998,60.00000,8.789659e-006
 863.93700,384.48736,5.898209e-003,0.29999,60.00000,8.786976e-006
 864.93700,384.28502,5.911513e-003,0.30003,60.00000,8.793923e-006
 865.93700,384.08336,5.923657e-003,0.30008,60.00000,8.798955e-006
 866.93700,383.88180,5.935760e-003,0.29999,60.00000,8.803981e-006
 867.93700,383.68002,5.948282e-003,0.29994,60.00000,8.809702e-006
 868.93700,383.47826,5.959561e-003,0.30001,60.00000,8.813434e-006
 869.93700,383.27648,5.972091e-003,0.29999,60.00000,8.819027e-006
 870.93700,383.07450,5.984207e-003,0.29998,60.00000,8.824015e-006
 871.93700,382.87217,5.997057e-003,0.29996,60.00000,8.830047e-006
 872.93700,382.67010,6.009556e-003,0.29997,60.00000,8.835662e-006
 873.93700,382.46884,6.028581e-003,0.29998,60.00000,8.850942e-006
 874.93700,382.26813,6.040666e-003,0.30000,60.00000,8.855838e-006
 875.93700,382.06779,6.052813e-003,0.30000,60.00000,8.860814e-006
 876.93700,381.86723,6.064974e-003,0.30006,60.00000,8.865740e-006
 877.93700,381.66498,6.077342e-003,0.30000,60.00000,8.870934e-006
 878.93700,381.46115,6.089491e-003,0.29999,60.00000,8.875932e-006
 879.93700,381.25774,6.101990e-003,0.30003,60.00000,8.881345e-006
 880.93700,381.05517,6.114835e-003,0.30000,60.00000,8.887195e-006
 881.93700,380.85249,6.128342e-003,0.29999,60.00000,8.894079e-006
 882.93700,380.65013,6.141048e-003,0.29998,60.00000,8.899802e-006
 883.93700,380.44865,6.153742e-003,0.29998,60.00000,8.905444e-006
 884.93700,380.24713,6.166870e-003,0.29995,60.00000,8.911656e-006
 885.93700,380.04526,6.179420e-003,0.29995,60.00000,8.917061e-006
 886.93700,379.84306,6.192096e-003,0.30002,60.00000,8.922537e-006
 887.93700,379.63990,6.204515e-003,0.29999,60.00000,8.927747e-006
 888.93700,379.43674,6.217028e-003,0.30005,60.00000,8.933009e-006
 889.93700,379.23404,6.229481e-003,0.30001,60.00000,8.938162e-006
 890.93700,379.03152,6.241787e-003,0.30001,60.00000,8.943137e-006
 891.93700,378.82970,6.254283e-003,0.29997,60.00000,8.948364e-006
 892.93700,378.62826,6.266455e-003,0.29999,60.00000,8.953063e-006
 893.93700,378.42745,6.288554e-003,0.30000,60.00000,8.972296e-006
 894.93700,378.22741,6.307482e-003,0.30003,60.00000,8.986858e-006
 895.93700,378.02809,6.321370e-003,0.30005,60.00000,8.993968e-006
 896.93700,377.83004,6.335126e-003,0.29997,60.00000,9.000921e-006
 897.93700,377.63303,6.348293e-003,0.29998,60.00000,9.006916e-006
 898.93700,377.43662,6.361184e-003,0.30002,60.00000,9.012608e-006
 899.93700,377.24045,6.374472e-003,0.29997,60.00000,9.018788e-006
 900.93700,377.04415,6.387603e-003,0.30001,60.00000,9.024727e-006
 901.93700,376.84717,6.400553e-003,0.29999,60.00000,9.030403e-006
 902.93700,376.64966,6.413248e-003,0.30006,60.00000,9.035671e-006
 903.93700,376.45160,6.426283e-003,0.30002,60.00000,9.041435e-006
 904.93700,376.25327,6.438754e-003,0.30003,60.00000,9.046424e-006
 905.93700,376.05504,6.451351e-003,0.30002,60.00000,9.051527e-006
 906.93700,375.85717,6.464342e-003,0.29996,60.00000,9.057225e-006
 907.93700,375.65973,6.476931e-003,0.29997,60.00000,9.062218e-006
 908.93700,375.46202,6.489619e-003,0.29999,60.00000,9.067363e-006
 909.93700,375.26405,6.501961e-003,0.29999,60.00000,9.072083e-006
 910.93700,375.06594,6.514698e-003,0.29996,60.00000,9.077315e-006
 911.93700,374.86730,6.527778e-003,0.30015,60.00000,9.082961e-006
 912.93700,374.66780,6.541299e-003,0.30002,60.00000,9.089303e-006
 913.93700,374.46681,6.555321e-003,0.30005,60.00000,9.096306e-006
 914.93700,374.26446,6.569944e-003,0.30000,60.00000,9.104184e-006
 915.93700,374.06096,6.583900e-003,0.30003,60.00000,9.111025e-006
 916.93700,373.85687,6.596764e-003,0.30002,60.00000,9.116360e-006
 917.93700,373.65236,6.609549e-003,0.29995,60.00000,9.121510e-006
 918.93700,373.44657,6.622205e-003,0.29996,60.00000,9.126509e-006
 919.93700,373.24006,6.634363e-003,0.30001,60.00000,9.130763e-006
 920.93700,373.03298,6.646576e-003,0.30000,60.00000,9.135122e-006
 921.93700,372.82516,6.658909e-003,0.30000,60.00000,9.139600e-006
 922.93700,372.61754,6.671551e-003,0.30003,60.00000,9.144520e-006
 923.93700,372.41044,6.684206e-003,0.30000,60.00000,9.149531e-006
 924.93700,372.20393,6.696580e-003,0.29996,60.00000,9.154011e-006
 925.93700,371.99836,6.709211e-003,0.30001,60.00000,9.158833e-006
 926.93700,371.79366,6.722232e-003,0.30000,60.00000,9.164184e-006
 927.93700,371.59053,6.735080e-003,0.29993,60.00000,9.169394e-006
 928.93700,371.39040,6.748459e-003,0.30001,60.00000,9.175262e-006
 929.93700,371.19363,6.762424e-003,0.29996,60.00000,9.181849e-006
 930.93700,370.99883,6.776971e-003,0.29997,60.00000,9.189252e-006
 931.93700,370.80413,6.791908e-003,0.29999,60.00000,9.197245e-006
 932.93700,370.60881,6.806476e-003,0.29997,60.00000,9.204629e-006
 933.93700,370.41255,6.819779e-003,0.30005,60.00000,9.210300e-006
 934.93700,370.21455,6.833090e-003,0.29995,60.00000,9.215984e-006
 935.93700,370.01514,6.846188e-003,0.30004,60.00000,9.221347e-006
 936.93700,369.81487,6.859781e-003,0.29999,60.00000,9.227357e-006
 937.93700,369.61359,6.873422e-003,0.30003,60.00000,9.233443e-006
 938.93700,369.41207,6.886929e-003,0.30001,60.00000,9.239265e-006
 939.93700,369.21011,6.900104e-003,0.29997,60.00000,9.244709e-006
 940.93700,369.00727,6.913779e-003,0.30001,60.00000,9.250706e-006
 941.93700,368.80405,6.926979e-003,0.29996,60.00000,9.256141e-006
 942.93700,368.60041,6.940926e-003,0.29998,60.00000,9.262496e-006
 943.93700,368.39684,6.954351e-003,0.29995,60.00000,9.268184e-006
 944.93700,368.19357,6.968540e-003,0.29991,60.00000,9.274912e-006
 945.93700,367.99095,6.984523e-003,0.29999,60.00000,9.284039e-006
 946.93700,367.78891,6.999052e-003,0.30001,60.00000,9.291128e-006
 947.93700,367.58701,7.012369e-003,0.30002,60.00000,9.296605e-006
 948.93700,367.38495,7.027096e-003,0.30000,60.00000,9.303912e-006
 949.93700,367.18302,7.042103e-003,0.29997,60.00000,9.311652e-006
 950.93700,366.98220,7.055744e-003,0.29999,60.00000,9.317532e-006
 951.93700,366.78229,7.069612e-003,0.30002,60.00000,9.323582e-006
 952.93700,366.58272,7.083483e-003,0.30000,60.00000,9.329729e-006
 953.93700,366.38420,7.097295e-003,0.30002,60.00000,9.335780e-006
 954.93700,366.18730,7.110752e-003,0.29996,60.00000,9.341259e-006
 955.93700,365.99136,7.124742e-003,0.29999,60.00000,9.347538e-006
 956.93700,365.79536,7.138709e-003,0.29999,60.00000,9.353709e-006
 957.93700,365.59925,7.152562e-003,0.29999,60.00000,9.359689e-006
 958.93700,365.40308,7.165720e-003,0.30003,60.00000,9.364779e-006
 959.93700,365.20655,7.178567e-003,0.29988,60.00000,9.369429e-006
 960.93700,365.00905,7.191938e-003,0.29996,60.00000,9.374742e-006
 961.93700,364.81030,7.205241e-003,0.29999,60.00000,9.379995e-006
 962.93700,364.61023,7.218432e-003,0.29996,60.00000,9.385040e-006
 963.93700,364.40959,7.258886e-003,0.30000,60.00000,9.426271e-006
 964.93700,364.20935,7.273931e-003,0.29998,60.00000,9.433699e-006
 965.93700,364.00972,7.287231e-003,0.29995,60.00000,9.438835e-006
 966.93700,363.81098,7.301365e-003,0.30001,60.00000,9.445038e-006
 967.93700,363.61311,7.315409e-003,0.30001,60.00000,9.451067e-006
 968.93700,363.41602,7.329383e-003,0.30001,60.00000,9.457045e-006
 969.93700,363.21969,7.342975e-003,0.30001,60.00000,9.462493e-006
 970.93700,363.02264,7.356989e-003,0.30001,60.00000,9.468450e-006
 971.93700,362.82406,7.370126e-003,0.29999,60.00000,9.473290e-006
 972.93700,362.62434,7.383216e-003,0.29999,60.00000,9.478025e-006
 973.93700,362.42304,7.396281e-003,0.29994,60.00000,9.482689e-006
 974.93700,362.21988,7.410050e-003,0.29999,60.00000,9.488358e-006
 975.93700,362.01530,7.423692e-003,0.30002,60.00000,9.493708e-006
 976.93700,361.81023,7.437692e-003,0.30001,60.00000,9.499673e-006
 977.93700,361.60545,7.451631e-003,0.29999,60.00000,9.505378e-006
 978.93700,361.40116,7.465344e-003,0.30001,60.00000,9.510865e-006
 979.93700,361.19713,7.478761e-003,0.30001,60.00000,9.515976e-006
 980.93700,360.99358,7.491738e-003,0.29996,60.00000,9.520488e-006
 981.93700,360.79040,7.505328e-003,0.30001,60.00000,9.525745e-006
 982.93700,360.58725,7.519202e-003,0.29999,60.00000,9.531324e-006
 983.93700,360.38401,7.533006e-003,0.30001,60.00000,9.536883e-006
 984.93700,360.18070,7.546743e-003,0.30005,60.00000,9.542287e-006
 985.93700,359.97738,7.561010e-003,0.29997,60.00000,9.548390e-006
 986.93700,359.77415,7.586529e-003,0.30002,60.00000,9.568898e-006
 987.93700,359.57125,7.600505e-003,0.29996,60.00000,9.574576e-006
 988.93700,359.36862,7.615374e-003,0.29999,60.00000,9.581394e-006
 989.93700,359.16613,7.629999e-003,0.30001,60.00000,9.587865e-006
 990.93700,358.96424,7.644752e-003,0.30001,60.00000,9.594514e-006
 991.93700,358.76304,7.658870e-003,0.30002,60.00000,9.600302e-006
 992.93700,358.56195,7.672957e-003,0.30001,60.00000,9.605978e-006
 993.93700,358.36068,7.686775e-003,0.29999,60.00000,9.611384e-006
 994.93700,358.15918,7.700176e-003,0.30002,60.00000,9.616222e-006
 995.93700,357.95742,7.713849e-003,0.30002,60.00000,9.621369e-006
 996.93700,357.75530,7.727337e-003,0.30002,60.00000,9.626293e-006
 997.93700,357.55293,7.741044e-003,0.30001,60.00000,9.631450e-006
 998.93700,357.34969,7.755793e-003,0.29999,60.00000,9.637920e-006
 999.93700,357.14536,7.772608e-003,0.30002,60.00000,9.647028e-006
1000.93700,356.94059,7.789916e-003,0.30001,60.00000,9.656688e-006
1001.93700,356.73549,7.803726e-003,0.30002,60.00000,9.661972e-006
1002.93700,356.53010,7.817526e-003,0.30000,60.00000,9.667198e-006
1003.93700,356.32557,7.832335e-003,0.30001,60.00000,9.673680e-006
1004.93700,356.12256,7.847000e-003,0.29996,60.00000,9.679927e-006
1005.93700,355.92127,7.862330e-003,0.30000,60.00000,9.687070e-006
1006.93700,355.72177,7.877714e-003,0.30001,60.00000,9.694172e-006
1007.93700,355.52297,7.892428e-003,0.30002,60.00000,9.700448e-006
1008.93700,355.32427,7.907400e-003,0.29999,60.00000,9.707060e-006
1009.93700,355.12565,7.922116e-003,0.30003,60.00000,9.713320e-006
1010.93700,354.92781,7.936846e-003,0.30000,60.00000,9.719644e-006
1011.93700,354.73107,7.951059e-003,0.30003,60.00000,9.725224e-006
1012.93700,354.53444,7.964773e-003,0.29999,60.00000,9.730144e-006
1013.93700,354.33702,7.978758e-003,0.30001,60.00000,9.735424e-006
1014.93700,354.13860,7.992963e-003,0.30002,60.00000,9.740976e-006
1015.93700,353.93955,8.006675e-003,0.30003,60.00000,9.745964e-006
1016.93700,353.74026,8.020819e-003,0.29998,60.00000,9.751359e-006
1017.93700,353.54117,8.034720e-003,0.30000,60.00000,9.756528e-006
1018.93700,353.34235,8.048919e-003,0.30000,60.00000,9.762018e-006
1019.93700,353.14403,8.063198e-003,0.30000,60.00000,9.767627e-006
1020.93700,352.94588,8.077280e-003,0.30001,60.00000,9.772921e-006
1021.93700,352.74786,8.091902e-003,0.30000,60.00000,9.778861e-006
1022.93700,352.54984,8.106251e-003,0.29999,60.00000,9.784490e-006
1023.93700,352.35221,8.120341e-003,0.30000,60.00000,9.789818e-006
1024.93700,352.15471,8.134981e-003,0.30000,60.00000,9.795741e-006
1025.93700,351.95695,8.149210e-003,0.30000,60.00000,9.801154e-006
1026.93700,351.75823,8.163039e-003,0.30004,60.00000,9.806048e-006
1027.93700,351.55762,8.177326e-003,0.30000,60.00000,9.811609e-006
1028.93700,351.35642,8.191777e-003,0.30000,60.00000,9.817245e-006
1029.93700,351.15546,8.206029e-003,0.29992,60.00000,9.822629e-006
1030.93700,350.95450,8.220120e-003,0.29996,60.00000,9.827835e-006
1031.93700,350.75319,8.233825e-003,0.29998,60.00000,9.832559e-006
1032.93700,350.55108,8.248044e-003,0.30002,60.00000,9.837936e-006
1033.93700,350.34817,8.262083e-003,0.30002,60.00000,9.842979e-006
1034.93700,350.14401,8.277123e-003,0.30001,60.00000,9.849315e-006
1035.93700,349.93864,8.291588e-003,0.30001,60.00000,9.854891e-006
1036.93700,349.73253,8.306015e-003,0.30000,60.00000,9.860419e-006
1037.93700,349.52639,8.320142e-003,0.29997,60.00000,9.865582e-006
1038.93700,349.32112,8.334798e-003,0.30001,60.00000,9.871375e-006
1039.93700,349.11652,8.349035e-003,0.30003,60.00000,9.876598e-006
1040.93700,348.91187,8.363395e-003,0.29997,60.00000,9.882031e-006
1041.93700,348.70743,8.377766e-003,0.30001,60.00000,9.887409e-006
1042.93700,348.50396,8.392296e-003,0.30000,60.00000,9.892984e-006
1043.93700,348.30176,8.406551e-003,0.30001,60.00000,9.898227e-006
1044.93700,348.10155,8.421020e-003,0.30004,60.00000,9.903669e-006
1045.93700,347.90232,8.435104e-003,0.30000,60.00000,9.908691e-006
1046.93700,347.70244,8.449485e-003,0.29997,60.00000,9.913983e-006
1047.93700,347.50077,8.464293e-003,0.29997,60.00000,9.919798e-006
1048.93700,347.29843,8.479532e-003,0.29996,60.00000,9.926321e-006
1049.93700,347.09807,8.495080e-003,0.30001,60.00000,9.932918e-006
1050.93700,346.89866,8.511076e-003,0.29999,60.00000,9.940074e-006
1051.93700,346.69770,8.526477e-003,0.30004,60.00000,9.946576e-006
1052.93700,346.49511,8.541854e-003,0.30005,60.00000,9.953011e-006
1053.93700,346.29155,8.557500e-003,0.29996,60.00000,9.959819e-006
1054.93700,346.08836,8.578276e-003,0.30000,60.00000,9.972546e-006
1055.93700,345.88540,8.592922e-003,0.29998,60.00000,9.978128e-006
1056.93700,345.68129,8.608106e-003,0.30001,60.00000,9.984267e-006
1057.93700,345.47846,8.623126e-003,0.30001,60.00000,9.990239e-006
1058.93700,345.27711,8.639500e-003,0.30001,60.00000,9.997648e-006
1059.93700,345.07515,8.654742e-003,0.30005,60.00000,1.000386e-005
1060.93700,344.87256,8.669753e-003,0.30002,60.00000,1.000976e-005
1061.93700,344.67034,8.684675e-003,0.29996,60.00000,1.001548e-005
1062.93700,344.46866,8.699046e-003,0.30014,60.00000,1.002070e-005
1063.93700,344.26654,8.714194e-003,0.30001,60.00000,1.002667e-005
1064.93700,344.06472,8.729277e-003,0.30000,60.00000,1.003261e-005
1065.93700,343.86389,8.745336e-003,0.30000,60.00000,1.003961e-005
1066.93700,343.66420,8.761516e-003,0.29998,60.00000,1.004680e-005
1067.93700,343.46490,8.776385e-003,0.30003,60.00000,1.005236e-005
1068.93700,343.26529,8.790943e-003,0.29999,60.00000,1.005765e-005
1069.93700,343.06625,8.805019e-003,0.29998,60.00000,1.006232e-005
1070.93700,342.86828,8.819297e-003,0.30000,60.00000,1.006722e-005
1071.93700,342.67079,8.833204e-003,0.30000,60.00000,1.007158e-005
1072.93700,342.47204,8.847048e-003,0.29995,60.00000,1.007604e-005
1073.93700,342.27265,8.861316e-003,0.29995,60.00000,1.008087e-005
1074.93700,342.07524,8.875333e-003,0.29998,60.00000,1.008542e-005
1075.93700,341.87865,8.889257e-003,0.29998,60.00000,1.008988e-005
1076.93700,341.68134,8.903173e-003,0.29996,60.00000,1.009425e-005
1077.93700,341.48400,8.917273e-003,0.29981,60.00000,1.009887e-005
1078.93700,341.28619,8.932071e-003,0.30003,60.00000,1.010431e-005
1079.93700,341.08742,8.946545e-003,0.30000,60.00000,1.010932e-005
1080.93700,340.88851,8.961055e-003,0.29996,60.00000,1.011437e-005
1081.93700,340.68911,8.975304e-003,0.29998,60.00000,1.011913e-005
1082.93700,340.48861,8.990319e-003,0.30002,60.00000,1.012469e-005
1083.93700,340.28764,9.005479e-003,0.30000,60.00000,1.013047e-005
1084.93700,340.08646,9.020324e-003,0.29999,60.00000,1.013582e-005
1085.93700,339.88550,9.034888e-003,0.29998,60.00000,1.014093e-005
1086.93700,339.68421,9.049509e-003,0.29997,60.00000,1.014602e-005
1087.93700,339.48180,9.064221e-003,0.29998,60.00000,1.015123e-005
1088.93700,339.27937,9.078975e-003,0.29998,60.00000,1.015647e-005
1089.93700,339.07806,9.093947e-003,0.29994,60.00000,1.016196e-005
1090.93700,338.87803,9.112456e-003,0.29997,60.00000,1.017144e-005
1091.93700,338.67895,9.127735e-003,0.29985,60.00000,1.017724e-005
1092.93700,338.48005,9.142748e-003,0.30001,60.00000,1.018264e-005
1093.93700,338.27994,9.157499e-003,0.29999,60.00000,1.018778e-005
1094.93700,338.07839,9.172274e-003,0.30002,60.00000,1.019308e-005
1095.93700,337.87710,9.187000e-003,0.29999,60.00000,1.019816e-005
1096.93700,337.67727,9.202245e-003,0.29998,60.00000,1.020382e-005
1097.93700,337.47707,9.216405e-003,0.30001,60.00000,1.020832e-005
1098.93700,337.27449,9.230773e-003,0.29998,60.00000,1.021294e-005
1099.93700,337.07090,9.245480e-003,0.30001,60.00000,1.021807e-005
1100.93700,336.86770,9.260228e-003,0.29998,60.00000,1.022310e-005
1101.93700,336.66476,9.275129e-003,0.30000,60.00000,1.022831e-005
1102.93700,336.46120,9.289317e-003,0.29996,60.00000,1.023279e-005
1103.93700,336.25701,9.303800e-003,0.29998,60.00000,1.023756e-005
1104.93700,336.05224,9.318523e-003,0.29996,60.00000,1.024254e-005
1105.93700,335.84736,9.333341e-003,0.29998,60.00000,1.024767e-005
1106.93700,335.64320,9.348605e-003,0.30002,60.00000,1.025327e-005
1107.93700,335.43982,9.364211e-003,0.29996,60.00000,1.025925e-005
1108.93700,335.23737,9.378847e-003,0.30001,60.00000,1.026409e-005
1109.93700,335.03529,9.393687e-003,0.29998,60.00000,1.026919e-005
1110.93700,334.83254,9.408182e-003,0.30003,60.00000,1.027386e-005
1111.93700,334.62805,9.423059e-003,0.30002,60.00000,1.027891e-005
1112.93700,334.42182,9.437607e-003,0.29995,60.00000,1.028374e-005
1113.93700,334.21514,9.452327e-003,0.29999,60.00000,1.028857e-005
1114.93700,334.00796,9.467203e-003,0.29998,60.00000,1.029368e-005
1115.93700,333.80118,9.482848e-003,0.30000,60.00000,1.029961e-005
1116.93700,333.59653,9.498649e-003,0.30001,60.00000,1.030567e-005
1117.93700,333.39519,9.514563e-003,0.29997,60.00000,1.031185e-005
1118.93700,333.19823,9.530429e-003,0.29998,60.00000,1.031802e-005
1119.93700,333.00482,9.546058e-003,0.29998,60.00000,1.032380e-005
1120.93700,332.81428,9.561069e-003,0.30001,60.00000,1.032894e-005
1121.93700,332.62457,9.576527e-003,0.29989,60.00000,1.033451e-005
1122.93700,332.43261,9.591965e-003,0.30001,60.00000,1.034008e-005
1123.93700,332.23658,9.607570e-003,0.29999,60.00000,1.034590e-005
1124.93700,332.03884,9.623070e-003,0.30002,60.00000,1.035154e-005
1125.93700,331.84181,9.639618e-003,0.29997,60.00000,1.035824e-005
1126.93700,331.64453,9.655565e-003,0.29998,60.00000,1.036439e-005
1127.93700,331.44662,9.673620e-003,0.29997,60.00000,1.037273e-005
1128.93700,331.24816,9.689976e-003,0.29998,60.00000,1.037922e-005
1129.93700,331.04895,9.706130e-003,0.29998,60.00000,1.038560e-005
1130.93700,330.84936,9.722376e-003,0.29997,60.00000,1.039191e-005
1131.93700,330.64992,9.738169e-003,0.29999,60.00000,1.039777e-005
1132.93700,330.45031,9.753299e-003,0.29996,60.00000,1.040289e-005
1133.93700,330.25022,9.767867e-003,0.30002,60.00000,1.040743e-005
1134.93700,330.04945,9.782760e-003,0.30000,60.00000,1.041225e-005
1135.93700,329.84936,9.797247e-003,0.29980,60.00000,1.041667e-005
1136.93700,329.65060,9.813575e-003,0.30001,60.00000,1.042300e-005
1137.93700,329.45242,9.830655e-003,0.30000,60.00000,1.043022e-005
1138.93700,329.25392,9.845866e-003,0.30001,60.00000,1.043537e-005
1139.93700,329.05474,9.860483e-003,0.29995,60.00000,1.043984e-005
1140.93700,328.85489,9.874777e-003,0.29999,60.00000,1.044402e-005
1141.93700,328.65372,9.888964e-003,0.30003,60.00000,1.044798e-005
1142.93700,328.45066,9.903158e-003,0.30000,60.00000,1.045201e-005
1143.93700,328.24622,9.917460e-003,0.29998,60.00000,1.045617e-005
1144.93700,328.04093,9.932106e-003,0.30001,60.00000,1.046066e-005
1145.93700,327.83398,9.946759e-003,0.29996,60.00000,1.046507e-005
1146.93700,327.62514,9.961539e-003,0.29999,60.00000,1.046971e-005
1147.93700,327.41556,9.976344e-003,0.29996,60.00000,1.047434e-005
1148.93700,327.20663,9.991212e-003,0.29997,60.00000,1.047902e-005
1149.93700,326.99989,1.000678e-002,0.29999,60.00000,1.048445e-005
1150.93700,326.79509,1.002291e-002,0.29993,60.00000,1.049038e-005
1151.93700,326.59000,1.003851e-002,0.30003,60.00000,1.049582e-005
1152.93700,326.38330,1.005327e-002,0.30002,60.00000,1.050041e-005
1153.93700,326.17604,1.006855e-002,0.30002,60.00000,1.050548e-005
1154.93700,325.96907,1.008349e-002,0.30000,60.00000,1.051015e-005
1155.93700,325.76151,1.009918e-002,0.29997,60.00000,1.051561e-005
1156.93700,325.55303,1.011494e-002,0.29997,60.00000,1.052113e-005
1157.93700,325.34485,1.012977e-002,0.29997,60.00000,1.052573e-005
1158.93700,325.13781,1.014450e-002,0.30000,60.00000,1.053014e-005
1159.93700,324.93116,1.015915e-002,0.30000,60.00000,1.053442e-005
1160.93700,324.72432,1.017346e-002,0.30003,60.00000,1.053844e-005
1161.93700,324.51756,1.018818e-002,0.29999,60.00000,1.054281e-005
1162.93700,324.31120,1.020319e-002,0.30000,60.00000,1.054751e-005
1163.93700,324.10568,1.021787e-002,0.30001,60.00000,1.055186e-005
1164.93700,323.90136,1.023246e-002,0.30010,60.00000,1.055611e-005
1165.93700,323.69789,1.024746e-002,0.29994,60.00000,1.056070e-005
1166.93700,323.49528,1.026260e-002,0.30002,60.00000,1.056552e-005
1167.93700,323.29349,1.027744e-002,0.30003,60.00000,1.057000e-005
1168.93700,323.09155,1.029325e-002,0.30000,60.00000,1.057540e-005
1169.93700,322.88792,1.030867e-002,0.30000,60.00000,1.058048e-005
1170.93700,322.68123,1.032427e-002,0.29998,60.00000,1.058567e-005
1171.93700,322.47136,1.033962e-002,0.29997,60.00000,1.059061e-005
1172.93700,322.25805,1.035505e-002,0.29997,60.00000,1.059564e-005
1173.93700,322.04094,1.037023e-002,0.30000,60.00000,1.060042e-005
1174.93700,321.82309,1.038587e-002,0.29997,60.00000,1.060566e-005
1175.93700,321.61063,1.040172e-002,0.29996,60.00000,1.061119e-005
1176.93700,321.40947,1.041854e-002,0.30000,60.00000,1.061761e-005
1177.93700,321.22008,1.043470e-002,0.30002,60.00000,1.062333e-005
1178.93700,321.04122,1.045146e-002,0.29994,60.00000,1.062970e-005
1179.93700,320.87144,1.046939e-002,0.29999,60.00000,1.063719e-005
1180.93700,320.70913,1.048668e-002,0.29996,60.00000,1.064405e-005
1181.93700,320.55336,1.050429e-002,0.30001,60.00000,1.065126e-005
1182.93700,320.40236,1.052226e-002,0.29998,60.00000,1.065864e-005
1183.93700,320.25280,1.054051e-002,0.30002,60.00000,1.066636e-005
1184.93700,320.09986,1.055571e-002,0.29999,60.00000,1.067085e-005
1185.93700,319.93795,1.056999e-002,0.30001,60.00000,1.067452e-005
1186.93700,319.75923,1.058291e-002,0.30001,60.00000,1.067676e-005
1187.93700,319.55217,1.059509e-002,0.29997,60.00000,1.067830e-005
1188.93700,319.29849,1.060643e-002,0.30000,60.00000,1.067913e-005
1189.93700,318.99893,1.061954e-002,0.30002,60.00000,1.068187e-005
1190.93700,318.71777,1.063640e-002,0.29997,60.00000,1.068840e-005
1191.93700,318.48853,1.065403e-002,0.29999,60.00000,1.069533e-005
1192.93700,318.28434,1.067151e-002,0.30023,60.00000,1.070203e-005
1193.93700,318.08620,1.068729e-002,0.30001,60.00000,1.070722e-005
1194.93700,317.88860,1.070336e-002,0.30001,60.00000,1.071263e-005
1195.93700,317.68838,1.071867e-002,0.29997,60.00000,1.071729e-005
1196.93700,317.48315,1.073317e-002,0.30001,60.00000,1.072110e-005
1197.93700,317.27101,1.074782e-002,0.29998,60.00000,1.072502e-005
1198.93700,317.04970,1.076292e-002,0.30002,60.00000,1.072952e-005
1199.93700,316.81997,1.077842e-002,0.30000,60.00000,1.073434e-005
1200.93700,316.58695,1.079347e-002,0.29997,60.00000,1.073873e-005
1201.93700,316.35892,1.080888e-002,0.30000,60.00000,1.074354e-005
1202.93700,316.14431,1.082487e-002,0.30003,60.00000,1.074887e-005
1203.93700,315.94737,1.084179e-002,0.29997,60.00000,1.075514e-005
1204.93700,315.76761,1.085907e-002,0.30004,60.00000,1.076171e-005
1205.93700,315.60248,1.087682e-002,0.29999,60.00000,1.076874e-005
1206.93700,315.44921,1.089450e-002,0.30000,60.00000,1.077567e-005
1207.93700,315.30389,1.091242e-002,0.30004,60.00000,1.078269e-005
1208.93700,315.16189,1.092921e-002,0.30001,60.00000,1.078850e-005
1209.93700,315.01766,1.094446e-002,0.29996,60.00000,1.079277e-005
1210.93700,314.86395,1.095820e-002,0.30001,60.00000,1.079564e-005
1211.93700,314.69137,1.097080e-002,0.30001,60.00000,1.079743e-005
1212.93700,314.48805,1.098278e-002,0.30000,60.00000,1.079873e-005
1213.93700,314.24086,1.099426e-002,0.29996,60.00000,1.079944e-005
1214.93700,313.93935,1.100514e-002,0.30002,60.00000,1.079970e-005
1215.93700,313.61300,1.101896e-002,0.29997,60.00000,1.080291e-005
1216.93700,313.32331,1.103466e-002,0.30000,60.00000,1.080775e-005
1217.93700,313.06536,1.104995e-002,0.29998,60.00000,1.081214e-005
1218.93700,312.82687,1.106574e-002,0.30000,60.00000,1.081714e-005
1219.93700,312.61161,1.108237e-002,0.29999,60.00000,1.082299e-005
1220.93700,312.42047,1.109989e-002,0.30009,60.00000,1.082967e-005
1221.93700,312.25113,1.111882e-002,0.30002,60.00000,1.083775e-005
1222.93700,312.09828,1.113757e-002,0.30003,60.00000,1.084541e-005
1223.93700,311.95696,1.115593e-002,0.29997,60.00000,1.085283e-005
1224.93700,311.82280,1.117418e-002,0.29997,60.00000,1.086004e-005
1225.93700,311.69248,1.119121e-002,0.30005,60.00000,1.086599e-005
1226.93700,311.56187,1.120709e-002,0.30002,60.00000,1.087071e-005
1227.93700,311.42618,1.122198e-002,0.30004,60.00000,1.087450e-005
1228.93700,311.27983,1.123627e-002,0.29998,60.00000,1.087783e-005
1229.93700,311.11716,1.125016e-002,0.30001,60.00000,1.088083e-005
1230.93700,310.93283,1.126380e-002,0.29997,60.00000,1.088359e-005
1231.93700,310.71993,1.127675e-002,0.29996,60.00000,1.088564e-005
1232.93700,310.46660,1.128902e-002,0.29999,60.00000,1.088701e-005
1233.93700,310.15723,1.129997e-002,0.30003,60.00000,1.088717e-005
1234.93700,309.79605,1.131135e-002,0.30000,60.00000,1.088798e-005
1235.93700,309.48682,1.132677e-002,0.29988,60.00000,1.089236e-005
1236.93700,309.23571,1.134320e-002,0.30006,60.00000,1.089780e-005
1237.93700,309.01831,1.136091e-002,0.30000,60.00000,1.090447e-005
1238.93700,308.83005,1.137908e-002,0.29999,60.00000,1.091164e-005
1239.93700,308.66663,1.139817e-002,0.30000,60.00000,1.091966e-005
1240.93700,308.52157,1.141673e-002,0.29997,60.00000,1.092698e-005
1241.93700,308.38745,1.143440e-002,0.29999,60.00000,1.093327e-005
1242.93700,308.25847,1.145074e-002,0.30001,60.00000,1.093839e-005
1243.93700,308.12962,1.146661e-002,0.30001,60.00000,1.094298e-005
1244.93700,307.99725,1.148150e-002,0.30000,60.00000,1.094675e-005
1245.93700,307.85745,1.149610e-002,0.29999,60.00000,1.095023e-005
1246.93700,307.70695,1.151022e-002,0.30000,60.00000,1.095330e-005
1247.93700,307.54339,1.152394e-002,0.30004,60.00000,1.095598e-005
1248.93700,307.36415,1.153722e-002,0.30002,60.00000,1.095823e-005
1249.93700,307.16301,1.154953e-002,0.30001,60.00000,1.095945e-005
1250.93700,306.92443,1.155982e-002,0.29999,60.00000,1.095884e-005
1251.93700,306.60839,1.156861e-002,0.30001,60.00000,1.095680e-005
1252.93700,306.15800,1.157733e-002,0.30000,60.00000,1.095499e-005
1253.93700,305.79075,1.159277e-002,0.30003,60.00000,1.095946e-005
1254.93700,305.53089,1.160956e-002,0.30003,60.00000,1.096504e-005
1255.93700,305.31929,1.162710e-002,0.29999,60.00000,1.097137e-005
1256.93700,305.13692,1.164536e-002,0.30000,60.00000,1.097831e-005
1257.93700,304.97445,1.166339e-002,0.30001,60.00000,1.098499e-005
1258.93700,304.82516,1.168114e-002,0.29998,60.00000,1.099139e-005
1259.93700,304.68450,1.169863e-002,0.29997,60.00000,1.099754e-005
1260.93700,304.54931,1.171541e-002,0.30000,60.00000,1.100302e-005
1261.93700,304.41662,1.173175e-002,0.30001,60.00000,1.100793e-005
1262.93700,304.28347,1.174732e-002,0.30002,60.00000,1.101220e-005
1263.93700,304.14607,1.176211e-002,0.30001,60.00000,1.101560e-005
1264.93700,304.00021,1.177597e-002,0.30011,60.00000,1.101831e-005
1265.93700,303.84149,1.179077e-002,0.30001,60.00000,1.102187e-005
1266.93700,303.66620,1.180466e-002,0.30002,60.00000,1.102461e-005
1267.93700,303.46937,1.181810e-002,0.29999,60.00000,1.102689e-005
1268.93700,303.24221,1.183036e-002,0.29998,60.00000,1.102808e-005
1269.93700,302.96669,1.184137e-002,0.29997,60.00000,1.102812e-005
1270.93700,302.61405,1.185154e-002,0.30000,60.00000,1.102746e-005
1271.93700,302.25134,1.186588e-002,0.29996,60.00000,1.103082e-005
1272.93700,301.95841,1.188168e-002,0.29996,60.00000,1.103518e-005
1273.93700,301.69954,1.189801e-002,0.29994,60.00000,1.104023e-005
1274.93700,301.46700,1.191572e-002,0.30002,60.00000,1.104649e-005
1275.93700,301.25618,1.193337e-002,0.30002,60.00000,1.105265e-005
1276.93700,301.06375,1.195113e-002,0.30000,60.00000,1.105902e-005
1277.93700,300.88874,1.196881e-002,0.29998,60.00000,1.106528e-005
1278.93700,300.72847,1.198644e-002,0.29992,60.00000,1.107135e-005
1279.93700,300.57815,1.200417e-002,0.29997,60.00000,1.107746e-005
1280.93700,300.43352,1.202183e-002,0.30000,60.00000,1.108357e-005
1281.93700,300.29139,1.203885e-002,0.30004,60.00000,1.108909e-005
1282.93700,300.14904,1.205563e-002,0.29997,60.00000,1.109423e-005
1283.93700,300.00350,1.207134e-002,0.29998,60.00000,1.109852e-005
1284.93700,299.85082,1.208631e-002,0.30002,60.00000,1.110200e-005
1285.93700,299.68845,1.210124e-002,0.29999,60.00000,1.110568e-005
1286.93700,299.51619,1.211635e-002,0.30000,60.00000,1.110944e-005
1287.93700,299.33593,1.213140e-002,0.29998,60.00000,1.111314e-005
1288.93700,299.14528,1.214606e-002,0.29998,60.00000,1.111632e-005
1289.93700,298.93664,1.215964e-002,0.30000,60.00000,1.111859e-005
1290.93700,298.69942,1.217257e-002,0.30003,60.00000,1.112028e-005
1291.93700,298.42627,1.218477e-002,0.29997,60.00000,1.112135e-005
1292.93700,298.12991,1.219774e-002,0.30001,60.00000,1.112324e-005
1293.93700,297.85693,1.221273e-002,0.29998,60.00000,1.112690e-005
1294.93700,297.61565,1.222890e-002,0.29996,60.00000,1.113136e-005
1295.93700,297.38518,1.224483e-002,0.29999,60.00000,1.113578e-005
1296.93700,297.16105,1.226075e-002,0.29998,60.00000,1.114030e-005
1297.93700,296.94980,1.227686e-002,0.30001,60.00000,1.114490e-005
1298.93700,296.75495,1.229400e-002,0.30002,60.00000,1.115044e-005
1299.93700,296.57396,1.231091e-002,0.30001,60.00000,1.115566e-005
1300.93700,296.40010,1.232737e-002,0.29998,60.00000,1.116036e-005
1301.93700,296.22736,1.234372e-002,0.29999,60.00000,1.116511e-005
1302.93700,296.05438,1.236028e-002,0.30002,60.00000,1.117012e-005
1303.93700,295.88163,1.237669e-002,0.30000,60.00000,1.117486e-005
1304.93700,295.70934,1.239299e-002,0.30000,60.00000,1.117958e-005
1305.93700,295.53692,1.240871e-002,0.29996,60.00000,1.118368e-005
1306.93700,295.36480,1.242488e-002,0.30001,60.00000,1.118821e-005
1307.93700,295.19285,1.244066e-002,0.29998,60.00000,1.119243e-005
1308.93700,295.01942,1.245712e-002,0.29999,60.00000,1.119719e-005
1309.93700,294.84180,1.247362e-002,0.30002,60.00000,1.120196e-005
1310.93700,294.65571,1.248912e-002,0.30002,60.00000,1.120578e-005
1311.93700,294.45303,1.250342e-002,0.29998,60.00000,1.120853e-005
1312.93700,294.22474,1.251715e-002,0.29996,60.00000,1.121089e-005
1313.93700,293.96809,1.253068e-002,0.29998,60.00000,1.121304e-005
1314.93700,293.69335,1.254539e-002,0.29998,60.00000,1.121636e-005
1315.93700,293.43039,1.256146e-002,0.30000,60.00000,1.122085e-005
1316.93700,293.19095,1.257812e-002,0.30003,60.00000,1.122572e-005
1317.93700,292.96841,1.259468e-002,0.30002,60.00000,1.123052e-005
1318.93700,292.75853,1.261099e-002,0.30000,60.00000,1.123506e-005
1319.93700,292.55440,1.262661e-002,0.30002,60.00000,1.123895e-005
1320.93700,292.35186,1.264294e-002,0.30001,60.00000,1.124353e-005
1321.93700,292.14897,1.265862e-002,0.29988,60.00000,1.124746e-005
1322.93700,291.94008,1.267366e-002,0.29999,60.00000,1.125087e-005
1323.93700,291.71982,1.268927e-002,0.30002,60.00000,1.125481e-005
1324.93700,291.49090,1.270528e-002,0.30000,60.00000,1.125912e-005
1325.93700,291.26451,1.272227e-002,0.30003,60.00000,1.126434e-005
1326.93700,291.04988,1.273968e-002,0.29996,60.00000,1.126987e-005
1327.93700,290.84626,1.275700e-002,0.29997,60.00000,1.127523e-005
1328.93700,290.64917,1.277431e-002,0.30001,60.00000,1.128059e-005
1329.93700,290.45674,1.279155e-002,0.29996,60.00000,1.128590e-005
1330.93700,290.26844,1.280921e-002,0.30000,60.00000,1.129160e-005
1331.93700,290.08384,1.282651e-002,0.30000,60.00000,1.129698e-005
1332.93700,289.90209,1.284410e-002,0.29998,60.00000,1.130257e-005
1333.93700,289.72225,1.286156e-002,0.30001,60.00000,1.130804e-005
1334.93700,289.54378,1.287969e-002,0.29989,60.00000,1.131404e-005
1335.93700,289.36582,1.289806e-002,0.30000,60.00000,1.132037e-005
1336.93700,289.18702,1.291659e-002,0.29999,60.00000,1.132672e-005
1337.93700,289.00605,1.293497e-002,0.30000,60.00000,1.133290e-005
1338.93700,288.81873,1.295234e-002,0.30001,60.00000,1.133820e-005
1339.93700,288.61835,1.296922e-002,0.29999,60.00000,1.134307e-005
1340.93700,288.39909,1.298580e-002,0.29994,60.00000,1.134779e-005
1341.93700,288.16101,1.300246e-002,0.29997,60.00000,1.135245e-005
1342.93700,287.90991,1.301977e-002,0.29998,60.00000,1.135783e-005
1343.93700,287.66634,1.303860e-002,0.30003,60.00000,1.136460e-005
1344.93700,287.44568,1.305736e-002,0.30002,60.00000,1.137102e-005
1345.93700,287.24366,1.307607e-002,0.29997,60.00000,1.137751e-005
1346.93700,287.05356,1.309425e-002,0.29992,60.00000,1.138341e-005
1347.93700,286.86789,1.311290e-002,0.29998,60.00000,1.138969e-005
1348.93700,286.67901,1.313071e-002,0.29999,60.00000,1.139533e-005
1349.93700,286.48527,1.314861e-002,0.30002,60.00000,1.140108e-005
1350.93700,286.28920,1.316662e-002,0.30001,60.00000,1.140687e-005
1351.93700,286.08930,1.318442e-002,0.29998,60.00000,1.141244e-005
1352.93700,285.88259,1.320223e-002,0.30001,60.00000,1.141803e-005
1353.93700,285.67021,1.322006e-002,0.30002,60.00000,1.142369e-005
1354.93700,285.45852,1.323888e-002,0.29996,60.00000,1.143022e-005
1355.93700,285.25487,1.325836e-002,0.30000,60.00000,1.143728e-005
1356.93700,285.05849,1.327683e-002,0.30000,60.00000,1.144325e-005
1357.93700,284.86119,1.329501e-002,0.30000,60.00000,1.144908e-005
1358.93700,284.65582,1.331206e-002,0.30009,60.00000,1.145406e-005
1359.93700,284.44350,1.333051e-002,0.30000,60.00000,1.146013e-005
1360.93700,284.22887,1.334880e-002,0.30000,60.00000,1.146607e-005
1361.93700,284.01357,1.336783e-002,0.30000,60.00000,1.147265e-005
1362.93700,283.79845,1.338639e-002,0.29998,60.00000,1.147882e-005
1363.93700,283.58595,1.340569e-002,0.30000,60.00000,1.148565e-005
1364.93700,283.38114,1.342564e-002,0.29995,60.00000,1.149301e-005
1365.93700,283.18853,1.344600e-002,0.29999,60.00000,1.150075e-005
1366.93700,283.00500,1.346509e-002,0.29999,60.00000,1.150709e-005
1367.93700,282.82384,1.348415e-002,0.29997,60.00000,1.151359e-005
1368.93700,282.63966,1.350245e-002,0.29998,60.00000,1.151943e-005
1369.93700,282.45099,1.352127e-002,0.30012,60.00000,1.152581e-005
1370.93700,282.26048,1.354163e-002,0.29999,60.00000,1.153342e-005
1371.93700,282.07170,1.356195e-002,0.29998,60.00000,1.154100e-005
1372.93700,281.88528,1.358245e-002,0.30001,60.00000,1.154868e-005
1373.93700,281.69998,1.360251e-002,0.30000,60.00000,1.155602e-005
1374.93700,281.51426,1.362264e-002,0.29996,60.00000,1.156335e-005
1375.93700,281.32877,1.364310e-002,0.30000,60.00000,1.157100e-005
1376.93700,281.14554,1.366370e-002,0.30001,60.00000,1.157872e-005
1377.93700,280.96533,1.368489e-002,0.29999,60.00000,1.158697e-005
1378.93700,280.78855,1.370603e-002,0.29998,60.00000,1.159521e-005
1379.93700,280.61717,1.372723e-002,0.29998,60.00000,1.160340e-005
1380.93700,280.45067,1.374819e-002,0.29996,60.00000,1.161135e-005
1381.93700,280.28596,1.377028e-002,0.30001,60.00000,1.162022e-005
1382.93700,280.12091,1.379192e-002,0.30002,60.00000,1.162878e-005
1383.93700,279.95540,1.381390e-002,0.29999,60.00000,1.163762e-005
1384.93700,279.78991,1.383595e-002,0.29998,60.00000,1.164645e-005
1385.93700,279.62470,1.385790e-002,0.29999,60.00000,1.165525e-005
1386.93700,279.45906,1.388039e-002,0.30003,60.00000,1.166439e-005
1387.93700,279.29168,1.390264e-002,0.30001,60.00000,1.167339e-005
1388.93700,279.12206,1.392511e-002,0.29997,60.00000,1.168261e-005
1389.93700,278.95042,1.394770e-002,0.29995,60.00000,1.169175e-005
1390.93700,278.77537,1.397023e-002,0.29989,60.00000,1.170093e-005
1391.93700,278.59473,1.399420e-002,0.29998,60.00000,1.171139e-005
1392.93700,278.41111,1.401912e-002,0.30000,60.00000,1.172258e-005
1393.93700,278.22929,1.404389e-002,0.30000,60.00000,1.173365e-005
1394.93700,278.05153,1.406909e-002,0.29998,60.00000,1.174494e-005
1395.93700,277.87520,1.409423e-002,0.30001,60.00000,1.175628e-005
1396.93700,277.69751,1.412042e-002,0.30001,60.00000,1.176837e-005
1397.93700,277.51732,1.414630e-002,0.30001,60.00000,1.178013e-005
1398.93700,277.32909,1.417266e-002,0.29999,60.00000,1.179245e-005
1399.93700,277.12590,1.420063e-002,0.29985,60.00000,1.180595e-005

