#EXPORTTYPE:       ,DATA ALL                          
#FILE:             ,李院长 MgO-C C15-骨 C15-基 1400.ngb-dl9
#FORMAT:           ,NETZSCH5                          
#FTYPE:            ,ANSI                              
#IDENTITY:         ,C15-骨                             
#DECIMAL:          ,POINT                             
#SEPARATOR:        ,COMMA                             
#MTYPE:            ,DIL                               
#INSTRUMENT:       ,NETZSCH DIL 402SU                 
#PROJECT:          ,123                               
#DATE/TIME:        ,2025/6/5 17:20:27 (UTC+8)         
#CORR. FILE:       ,石墨炉 1400度-1.ngb-cl9               
#TEMPCAL:          ,TCALZERO.TMX                      
#LABORATORY:       ,wust                              
#OPERATOR:         ,                                  
#REMARK:           ,                                  
#SAMPLE:           ,镁碳                                
#SAMPLE LENGTH /mm:,25.96                             
#MATERIAL:         ,镁碳                                
#MEASMODE:         ,Standard Expansion                
#M.RANGE /μm:      ,50000                             
#CORR. CODE:       ,080                               
#RANGE:            ,1403°C/5.0(K/min)/200°C           
#SEGMENT:          ,S2/2                              
#SEG. 2:           ,1403°C/5.0(K/min)/200°C           
#Tref:             ,210.0°C                           

##Temp./°C,Time/min,dL/Lo,Force/N,Gas Flow(protective)/(ml/min),m. CTE(2)/(1/K)
 201.07001,516.18250,-6.003182e-006,0.29999,60.00000,5.330120e-006
 202.07001,515.98262,-4.632236e-007,0.29999,60.00000,5.305270e-006
 203.07001,515.78021, 5.319564e-006,0.29999,60.00000,5.238095e-006
 204.07001,515.57604, 1.084619e-005,0.29998,60.00000,5.186175e-006
 205.07001,515.37136, 1.629536e-005,0.30003,60.00000,5.077190e-006
 206.07001,515.16854, 2.201442e-005,0.29999,60.00000,4.997354e-006
 207.07001,514.96927, 2.717239e-005,0.30001,60.00000,4.918981e-006
 208.07001,514.77395, 3.201125e-005,0.29998,60.00000,4.842161e-006
 209.07001,514.58231, 3.713337e-005,0.29999,60.00000,4.766788e-006
 210.07001,514.39269, 4.202896e-005,0.29999,60.00000,4.692210e-006
 211.07001,514.20355, 4.663508e-005,0.30002,60.00000,4.617817e-006
 212.07001,514.01319, 5.064343e-005,0.30003,60.00000,4.542947e-006
 213.07001,513.82007, 5.546756e-005,0.29998,60.00000,4.466993e-006
 214.07001,513.62339, 5.980761e-005,0.30001,60.00000,4.389639e-006
 215.07001,513.42296, 6.348659e-005,0.29998,60.00000,4.311310e-006
 216.07001,513.21915, 6.739094e-005,0.30000,60.00000,4.250560e-006
 217.07001,513.01443, 7.150828e-005,0.29996,60.00000,4.231935e-006
 218.07001,512.81146, 7.643888e-005,0.30002,60.00000,4.320065e-006
 219.07001,512.61162, 8.178471e-005,0.30003,60.00000,4.431761e-006
 220.07001,512.41649, 8.699928e-005,0.29997,60.00000,4.512330e-006
 221.07001,512.22515, 9.176777e-005,0.30000,60.00000,4.532969e-006
 222.07001,512.03620, 9.655120e-005,0.29997,60.00000,4.554608e-006
 223.07001,511.84764, 1.013838e-004,0.30001,60.00000,4.574160e-006
 224.07001,511.65741, 1.060514e-004,0.29998,60.00000,4.579642e-006
 225.07001,511.46377, 1.098996e-004,0.29999,60.00000,4.530633e-006
 226.07001,511.26548, 1.137939e-004,0.30002,60.00000,4.490975e-006
 227.07001,511.06285, 1.186311e-004,0.29998,60.00000,4.511837e-006
 228.07001,510.85743, 1.239615e-004,0.29999,60.00000,4.557214e-006
 229.07001,510.65110, 1.296470e-004,0.29999,60.00000,4.617596e-006
 230.07001,510.44715, 1.351344e-004,0.29998,60.00000,4.661559e-006
 231.07001,510.24783, 1.406933e-004,0.30000,60.00000,4.704459e-006
 232.07001,510.05309, 1.461839e-004,0.30002,60.00000,4.740202e-006
 233.07001,509.86131, 1.513220e-004,0.29997,60.00000,4.757652e-006
 234.07001,509.67107, 1.567158e-004,0.30003,60.00000,4.782984e-006
 235.07001,509.48101, 1.617091e-004,0.30001,60.00000,4.790554e-006
 236.07001,509.28884, 1.670579e-004,0.29997,60.00000,4.811330e-006
 237.07001,509.09268, 1.719349e-004,0.29999,60.00000,4.814020e-006
 238.07001,508.89248, 1.766418e-004,0.30006,60.00000,4.811291e-006
 239.07001,508.68882, 1.822339e-004,0.29999,60.00000,4.838144e-006
 240.07001,508.48355, 1.878359e-004,0.30012,60.00000,4.863943e-006
 241.07001,508.27941, 1.939159e-004,0.30001,60.00000,4.902570e-006
 242.07001,508.07798, 1.997527e-004,0.30001,60.00000,4.931813e-006
 243.07001,507.88087, 2.048736e-004,0.30000,60.00000,4.937908e-006
 244.07001,507.68753, 2.101455e-004,0.30003,60.00000,4.946742e-006
 245.07001,507.49671, 2.153875e-004,0.29999,60.00000,4.955078e-006
 246.07001,507.30658, 2.203494e-004,0.29999,60.00000,4.955365e-006
 247.07001,507.11493, 2.240906e-004,0.30001,60.00000,4.922927e-006
 248.07001,506.92084, 2.287446e-004,0.29999,60.00000,4.915930e-006
 249.07001,506.72365, 2.339234e-004,0.29999,60.00000,4.922824e-006
 250.07001,506.52376, 2.390925e-004,0.30000,60.00000,4.928503e-006
 251.07001,506.32260, 2.449076e-004,0.30002,60.00000,4.950427e-006
 252.07001,506.12132, 2.499893e-004,0.29999,60.00000,4.953301e-006
 253.07001,505.92130, 2.540786e-004,0.30000,60.00000,4.933768e-006
 254.07001,505.72371, 2.594852e-004,0.29998,60.00000,4.944637e-006
 255.07001,505.52824, 2.646370e-004,0.30000,60.00000,4.949045e-006
 256.07001,505.33417, 2.685895e-004,0.30001,60.00000,4.927180e-006
 257.07001,505.14058, 2.732870e-004,0.29999,60.00000,4.922434e-006
 258.07001,504.94621, 2.785525e-004,0.29999,60.00000,4.929485e-006
 259.07001,504.75041, 2.837013e-004,0.30002,60.00000,4.933587e-006
 260.07001,504.55243, 2.894430e-004,0.30001,60.00000,4.949809e-006
 261.07001,504.35251, 2.950549e-004,0.30003,60.00000,4.963140e-006
 262.07001,504.15231, 3.011436e-004,0.30000,60.00000,4.984702e-006
 263.07001,503.95335, 3.072079e-004,0.29998,60.00000,5.005192e-006
 264.07001,503.75651, 3.132852e-004,0.29999,60.00000,5.025217e-006
 265.07001,503.56123, 3.193279e-004,0.29999,60.00000,5.043335e-006
 266.07001,503.36722, 3.248546e-004,0.29998,60.00000,5.052068e-006
 267.07001,503.17404, 3.299723e-004,0.29999,60.00000,5.053067e-006
 268.07001,502.97987, 3.351932e-004,0.30000,60.00000,5.055543e-006
 269.07001,502.78370, 3.406515e-004,0.29997,60.00000,5.062519e-006
 270.07001,502.58548, 3.465006e-004,0.30000,60.00000,5.076114e-006
 271.07001,502.38514, 3.525778e-004,0.29998,60.00000,5.091943e-006
 272.07001,502.18384, 3.583042e-004,0.29998,60.00000,5.102328e-006
 273.07001,501.98300, 3.639112e-004,0.29997,60.00000,5.110638e-006
 274.07001,501.78386, 3.695293e-004,0.29998,60.00000,5.119096e-006
 275.07001,501.58670, 3.740373e-004,0.30001,60.00000,5.108776e-006
 276.07001,501.39170, 3.766511e-004,0.30000,60.00000,5.071224e-006
 277.07001,501.19789, 3.817261e-004,0.29999,60.00000,5.071239e-006
 278.07001,501.00436, 3.865593e-004,0.29999,60.00000,5.067800e-006
 279.07001,500.81001, 3.914361e-004,0.29999,60.00000,5.064690e-006
 280.07001,500.61371, 3.969256e-004,0.30001,60.00000,5.070611e-006
 281.07001,500.41534, 4.021867e-004,0.29998,60.00000,5.073915e-006
 282.07001,500.21498, 4.059481e-004,0.30003,60.00000,5.055315e-006
 283.07001,500.01377, 4.119374e-004,0.29997,60.00000,5.068543e-006
 284.07001,499.81264, 4.171768e-004,0.30003,60.00000,5.070649e-006
 285.07001,499.61230, 4.228292e-004,0.29985,60.00000,5.078452e-006
 286.07001,499.41336, 4.283112e-004,0.29999,60.00000,5.083961e-006
 287.07001,499.21631, 4.341623e-004,0.30000,60.00000,5.094130e-006
 288.07001,499.02094, 4.397828e-004,0.29997,60.00000,5.100411e-006
 289.07001,498.82669, 4.455994e-004,0.30001,60.00000,5.109657e-006
 290.07001,498.63334, 4.504199e-004,0.30003,60.00000,5.105790e-006
 291.07001,498.44071, 4.506260e-004,0.30001,60.00000,5.045602e-006
 292.07001,498.24757, 4.562423e-004,0.30001,60.00000,5.052475e-006
 293.07001,498.05382, 4.619774e-004,0.29999,60.00000,5.060641e-006
 294.07001,497.85919, 4.678010e-004,0.30000,60.00000,5.069333e-006
 295.07001,497.66381, 4.737769e-004,0.29997,60.00000,5.080645e-006
 296.07001,497.46721, 4.798790e-004,0.30001,60.00000,5.091897e-006
 297.07001,497.26967, 4.851393e-004,0.30000,60.00000,5.093962e-006
 298.07001,497.07121, 4.911011e-004,0.30001,60.00000,5.103841e-006
 299.07001,496.87214, 4.962990e-004,0.29999,60.00000,5.104962e-006
 300.07001,496.67369, 5.022808e-004,0.29999,60.00000,5.114971e-006
 301.07001,496.47668, 5.080530e-004,0.30001,60.00000,5.122090e-006
 302.07001,496.28127, 5.140730e-004,0.30000,60.00000,5.131701e-006
 303.07001,496.08704, 5.197809e-004,0.29999,60.00000,5.138036e-006
 304.07001,495.89390, 5.240901e-004,0.30003,60.00000,5.129149e-006
 305.07001,495.70189, 5.299936e-004,0.30002,60.00000,5.137344e-006
 306.07001,495.51054, 5.357085e-004,0.30001,60.00000,5.143475e-006
 307.07001,495.31960, 5.412194e-004,0.29998,60.00000,5.147163e-006
 308.07001,495.12829, 5.443267e-004,0.30000,60.00000,5.126288e-006
 309.07001,494.93610, 5.500104e-004,0.30000,60.00000,5.131897e-006
 310.07001,494.74267, 5.558509e-004,0.30002,60.00000,5.139059e-006
 311.07001,494.54759, 5.612822e-004,0.29998,60.00000,5.141854e-006
 312.07001,494.35111, 5.672175e-004,0.30003,60.00000,5.149434e-006
 313.07001,494.15358, 5.730058e-004,0.30001,60.00000,5.155568e-006
 314.07001,493.95543, 5.788049e-004,0.30002,60.00000,5.161959e-006
 315.07001,493.75725, 5.836612e-004,0.29999,60.00000,5.159332e-006
 316.07001,493.55953, 5.899989e-004,0.29998,60.00000,5.170201e-006
 317.07001,493.36281, 5.956040e-004,0.30000,60.00000,5.174363e-006
 318.07001,493.16727, 6.018826e-004,0.29998,60.00000,5.184520e-006
 319.07001,492.97312, 6.076574e-004,0.30001,60.00000,5.189818e-006
 320.07001,492.78000, 6.139877e-004,0.30000,60.00000,5.200100e-006
 321.07001,492.58744, 6.204910e-004,0.29996,60.00000,5.211972e-006
 322.07001,492.39543, 6.258951e-004,0.29999,60.00000,5.213608e-006
 323.07001,492.20337, 6.318062e-004,0.30002,60.00000,5.219679e-006
 324.07001,492.01031, 6.376133e-004,0.29996,60.00000,5.225014e-006
 325.07001,491.81569, 6.436098e-004,0.29998,60.00000,5.231575e-006
 326.07001,491.61929, 6.490229e-004,0.29995,60.00000,5.233261e-006
 327.07001,491.42092, 6.551198e-004,0.29997,60.00000,5.240591e-006
 328.07001,491.22126, 6.611403e-004,0.29999,60.00000,5.247280e-006
 329.07001,491.02070, 6.668170e-004,0.30001,60.00000,5.250956e-006
 330.07001,490.81990, 6.718878e-004,0.30001,60.00000,5.249431e-006
 331.07001,490.61998, 6.776145e-004,0.30002,60.00000,5.253428e-006
 332.07001,490.42158, 6.840762e-004,0.30009,60.00000,5.263158e-006
 333.07001,490.22509, 6.908871e-004,0.30009,60.00000,5.275954e-006
 334.07001,490.03027, 6.971045e-004,0.29997,60.00000,5.283371e-006
 335.07001,489.83676, 7.030164e-004,0.30000,60.00000,5.288363e-006
 336.07001,489.64368, 7.097001e-004,0.30002,60.00000,5.299270e-006
 337.07001,489.45047, 7.161359e-004,0.30002,60.00000,5.308237e-006
 338.07001,489.25682, 7.224005e-004,0.29999,60.00000,5.315696e-006
 339.07001,489.06193, 7.287757e-004,0.30001,60.00000,5.323972e-006
 340.07001,488.86539, 7.350898e-004,0.30001,60.00000,5.331624e-006
 341.07001,488.66740, 7.353007e-004,0.29999,60.00000,5.292398e-006
 342.07001,488.46838, 7.416415e-004,0.29999,60.00000,5.300514e-006
 343.07001,488.26879, 7.481358e-004,0.30000,60.00000,5.309339e-006
 344.07001,488.06908, 7.531925e-004,0.30000,60.00000,5.307645e-006
 345.07001,487.87004, 7.592350e-004,0.30000,60.00000,5.313347e-006
 346.07001,487.67233, 7.653466e-004,0.30000,60.00000,5.318886e-006
 347.07001,487.47642, 7.717748e-004,0.30000,60.00000,5.327206e-006
 348.07001,487.28153, 7.783543e-004,0.29998,60.00000,5.336178e-006
 349.07001,487.08713, 7.844968e-004,0.29999,60.00000,5.342085e-006
 350.07001,486.89247, 7.910968e-004,0.30000,60.00000,5.350979e-006
 351.07001,486.69733, 7.972864e-004,0.30001,60.00000,5.356856e-006
 352.07001,486.50179, 8.034256e-004,0.30000,60.00000,5.362342e-006
 353.07001,486.30535, 8.095990e-004,0.30000,60.00000,5.367864e-006
 354.07001,486.10786, 8.157553e-004,0.29999,60.00000,5.373461e-006
 355.07001,485.90961, 8.200479e-004,0.30000,60.00000,5.366161e-006
 356.07001,485.71126, 8.256928e-004,0.30000,60.00000,5.368070e-006
 357.07001,485.51311, 8.317257e-004,0.29998,60.00000,5.372434e-006
 358.07001,485.31504, 8.369129e-004,0.30001,60.00000,5.371189e-006
 359.07001,485.11710, 8.425492e-004,0.30001,60.00000,5.372990e-006
 360.07001,484.91949, 8.488613e-004,0.29998,60.00000,5.379219e-006
 361.07001,484.72241, 8.548551e-004,0.30003,60.00000,5.383334e-006
 362.07001,484.52532, 8.615146e-004,0.29997,60.00000,5.391576e-006
 363.07001,484.32821, 8.677518e-004,0.30001,60.00000,5.397184e-006
 364.07001,484.13131, 8.735077e-004,0.29999,60.00000,5.399605e-006
 365.07001,483.93463, 8.801568e-004,0.30001,60.00000,5.407614e-006
 366.07001,483.73826, 8.864081e-004,0.30000,60.00000,5.413095e-006
 367.07001,483.54151, 8.922030e-004,0.30001,60.00000,5.415367e-006
 368.07001,483.34486, 8.980510e-004,0.29998,60.00000,5.418127e-006
 369.07001,483.14832, 9.042205e-004,0.30001,60.00000,5.422999e-006
 370.07001,482.95180, 9.102056e-004,0.29999,60.00000,5.426434e-006
 371.07001,482.75573, 9.165750e-004,0.30000,60.00000,5.432246e-006
 372.07001,482.55951, 9.227486e-004,0.29995,60.00000,5.436848e-006
 373.07001,482.36336, 9.291376e-004,0.29999,60.00000,5.442750e-006
 374.07001,482.16755, 9.357155e-004,0.29995,60.00000,5.449652e-006
 375.07001,481.97206, 9.420008e-004,0.29999,60.00000,5.454698e-006
 376.07001,481.77679, 9.440512e-004,0.30000,60.00000,5.434115e-006
 377.07001,481.58207, 9.510200e-004,0.29999,60.00000,5.443442e-006
 378.07001,481.38771, 9.577972e-004,0.29977,60.00000,5.451311e-006
 379.07001,481.19328, 9.640548e-004,0.29999,60.00000,5.456108e-006
 380.07001,480.99869, 9.700279e-004,0.29998,60.00000,5.459141e-006
 381.07001,480.80436, 9.764432e-004,0.30000,60.00000,5.464771e-006
 382.07001,480.61011, 9.824478e-004,0.30002,60.00000,5.467966e-006
 383.07001,480.41577, 9.888045e-004,0.30000,60.00000,5.472982e-006
 384.07001,480.22112, 9.950877e-004,0.30000,60.00000,5.477733e-006
 385.07001,480.02578, 1.001635e-003,0.30002,60.00000,5.483635e-006
 386.07001,479.83008, 1.007591e-003,0.30001,60.00000,5.486383e-006
 387.07001,479.63413, 1.011439e-003,0.30001,60.00000,5.477171e-006
 388.07001,479.43854, 1.017878e-003,0.29999,60.00000,5.482502e-006
 389.07001,479.24353, 1.024307e-003,0.30000,60.00000,5.487917e-006
 390.07001,479.04865, 1.030139e-003,0.30001,60.00000,5.489851e-006
 391.07001,478.85411, 1.036513e-003,0.30000,60.00000,5.494902e-006
 392.07001,478.65974, 1.043209e-003,0.30002,60.00000,5.501290e-006
 393.07001,478.46561, 1.049029e-003,0.30003,60.00000,5.502906e-006
 394.07001,478.27148, 1.053548e-003,0.30001,60.00000,5.497619e-006
 395.07001,478.07688, 1.059911e-003,0.30002,60.00000,5.502337e-006
 396.07001,477.88175, 1.065845e-003,0.30000,60.00000,5.504667e-006
 397.07001,477.68587, 1.072284e-003,0.29998,60.00000,5.509605e-006
 398.07001,477.48958, 1.079098e-003,0.29997,60.00000,5.516608e-006
 399.07001,477.29307, 1.085891e-003,0.30000,60.00000,5.523355e-006
 400.07001,477.09639, 1.092620e-003,0.30000,60.00000,5.529777e-006
 401.07001,476.89962, 1.099294e-003,0.30002,60.00000,5.535806e-006
 402.07001,476.70338, 1.105568e-003,0.29997,60.00000,5.539492e-006
 403.07001,476.50756, 1.112491e-003,0.29998,60.00000,5.546656e-006
 404.07001,476.31152, 1.119488e-003,0.30000,60.00000,5.554120e-006
 405.07001,476.11549, 1.125894e-003,0.29997,60.00000,5.558496e-006
 406.07001,475.91973, 1.132055e-003,0.29999,60.00000,5.561565e-006
 407.07001,475.72413, 1.137492e-003,0.29999,60.00000,5.560922e-006
 408.07001,475.52877, 1.144019e-003,0.29997,60.00000,5.565800e-006
 409.07001,475.33387, 1.150880e-003,0.29997,60.00000,5.572338e-006
 410.07001,475.13884, 1.157855e-003,0.30001,60.00000,5.579332e-006
 411.07001,474.94375, 1.164560e-003,0.30001,60.00000,5.584938e-006
 412.07001,474.74914, 1.171442e-003,0.30001,60.00000,5.591362e-006
 413.07001,474.55440, 1.178053e-003,0.30001,60.00000,5.596366e-006
 414.07001,474.35884, 1.184702e-003,0.30001,60.00000,5.601439e-006
 415.07001,474.16263, 1.191469e-003,0.29998,60.00000,5.607166e-006
 416.07001,473.96581, 1.196082e-003,0.29999,60.00000,5.602364e-006
 417.07001,473.76829, 1.202332e-003,0.29997,60.00000,5.605464e-006
 418.07001,473.57052, 1.208448e-003,0.30000,60.00000,5.607986e-006
 419.07001,473.37319, 1.212293e-003,0.29997,60.00000,5.599598e-006
 420.07001,473.17602, 1.218404e-003,0.29999,60.00000,5.602067e-006
 421.07001,472.97892, 1.224132e-003,0.30007,60.00000,5.602588e-006
 422.07001,472.78225, 1.231014e-003,0.30002,60.00000,5.608688e-006
 423.07001,472.58620, 1.237896e-003,0.29999,60.00000,5.614486e-006
 424.07001,472.39054, 1.244569e-003,0.30001,60.00000,5.619590e-006
 425.07001,472.19473, 1.251556e-003,0.30002,60.00000,5.625912e-006
 426.07001,471.99903, 1.258347e-003,0.29998,60.00000,5.631311e-006
 427.07001,471.80299, 1.264981e-003,0.30000,60.00000,5.635941e-006
 428.07001,471.60637, 1.271913e-003,0.30002,60.00000,5.641920e-006
 429.07001,471.40897, 1.279011e-003,0.30003,60.00000,5.648368e-006
 430.07001,471.21067, 1.285221e-003,0.30001,60.00000,5.650973e-006
 431.07001,471.01167, 1.292327e-003,0.29999,60.00000,5.657672e-006
 432.07001,470.81248, 1.299537e-003,0.30002,60.00000,5.664684e-006
 433.07001,470.61350, 1.306557e-003,0.29999,60.00000,5.670696e-006
 434.07001,470.41489, 1.314035e-003,0.30001,60.00000,5.678761e-006
 435.07001,470.21679, 1.321068e-003,0.30002,60.00000,5.684759e-006
 436.07001,470.01931, 1.327489e-003,0.30002,60.00000,5.687984e-006
 437.07001,469.82226, 1.334345e-003,0.30001,60.00000,5.693226e-006
 438.07001,469.62591, 1.341206e-003,0.30001,60.00000,5.698403e-006
 439.07001,469.42981, 1.348062e-003,0.30000,60.00000,5.703336e-006
 440.07001,469.23307, 1.354380e-003,0.30003,60.00000,5.705968e-006
 441.07001,469.03545, 1.361101e-003,0.29998,60.00000,5.710518e-006
 442.07001,468.83675, 1.367601e-003,0.30001,60.00000,5.713863e-006
 443.07001,468.63754, 1.371706e-003,0.29999,60.00000,5.706946e-006
 444.07001,468.43823, 1.378680e-003,0.30003,60.00000,5.712303e-006
 445.07001,468.23882, 1.384961e-003,0.30000,60.00000,5.714682e-006
 446.07001,468.03955, 1.392003e-003,0.30000,60.00000,5.720560e-006
 447.07001,467.84105, 1.399138e-003,0.29998,60.00000,5.726379e-006
 448.07001,467.64376, 1.405711e-003,0.29998,60.00000,5.729906e-006
 449.07001,467.44746, 1.412851e-003,0.30000,60.00000,5.735781e-006
 450.07001,467.25165, 1.419200e-003,0.29997,60.00000,5.738345e-006
 451.07001,467.05636, 1.425795e-003,0.30000,60.00000,5.741959e-006
 452.07001,466.86144, 1.432403e-003,0.30002,60.00000,5.745443e-006
 453.07001,466.66681, 1.438322e-003,0.30001,60.00000,5.746240e-006
 454.07001,466.47260, 1.444893e-003,0.29998,60.00000,5.749564e-006
 455.07001,466.27833, 1.451522e-003,0.30001,60.00000,5.753092e-006
 456.07001,466.08401, 1.457143e-003,0.30001,60.00000,5.752642e-006
 457.07001,465.88975, 1.464068e-003,0.29997,60.00000,5.757415e-006
 458.07001,465.69517, 1.470839e-003,0.29999,60.00000,5.761394e-006
 459.07001,465.50033, 1.477352e-003,0.29999,60.00000,5.764436e-006
 460.07001,465.30547, 1.483170e-003,0.29998,60.00000,5.764698e-006
 461.07001,465.11055, 1.489537e-003,0.30022,60.00000,5.767191e-006
 462.07001,464.91546, 1.496615e-003,0.29978,60.00000,5.772337e-006
 463.07001,464.72013, 1.502712e-003,0.29999,60.00000,5.773419e-006
 464.07001,464.52435, 1.509659e-003,0.30002,60.00000,5.778285e-006
 465.07001,464.32828, 1.516646e-003,0.29997,60.00000,5.782982e-006
 466.07001,464.13250, 1.523406e-003,0.30000,60.00000,5.786696e-006
 467.07001,463.93682, 1.530059e-003,0.29997,60.00000,5.790094e-006
 468.07001,463.74119, 1.537155e-003,0.29996,60.00000,5.795148e-006
 469.07001,463.54536, 1.543904e-003,0.29999,60.00000,5.798961e-006
 470.07001,463.34914, 1.551268e-003,0.29999,60.00000,5.804855e-006
 471.07001,463.15318, 1.558683e-003,0.29998,60.00000,5.811058e-006
 472.07001,462.95771, 1.565885e-003,0.29999,60.00000,5.816228e-006
 473.07001,462.76240, 1.573130e-003,0.30000,60.00000,5.821841e-006
 474.07001,462.56673, 1.580263e-003,0.30000,60.00000,5.826708e-006
 475.07001,462.37127, 1.586784e-003,0.29999,60.00000,5.829424e-006
 476.07001,462.17612, 1.593671e-003,0.29999,60.00000,5.833323e-006
 477.07001,461.98082, 1.600879e-003,0.30000,60.00000,5.838393e-006
 478.07001,461.78474, 1.607684e-003,0.29998,60.00000,5.842106e-006
 479.07001,461.58827, 1.614844e-003,0.30001,60.00000,5.846949e-006
 480.07001,461.39147, 1.620450e-003,0.30000,60.00000,5.846108e-006
 481.07001,461.19390, 1.625903e-003,0.29999,60.00000,5.844727e-006
 482.07001,460.99563, 1.633152e-003,0.29998,60.00000,5.849809e-006
 483.07001,460.79706, 1.640394e-003,0.30001,60.00000,5.854941e-006
 484.07001,460.59838, 1.647834e-003,0.30002,60.00000,5.860698e-006
 485.07001,460.40010, 1.654759e-003,0.29998,60.00000,5.864619e-006
 486.07001,460.20251, 1.662121e-003,0.29999,60.00000,5.869894e-006
 487.07001,460.00518, 1.669441e-003,0.29998,60.00000,5.875180e-006
 488.07001,459.80828, 1.676891e-003,0.29998,60.00000,5.880851e-006
 489.07001,459.61206, 1.684045e-003,0.29999,60.00000,5.885411e-006
 490.07001,459.41576, 1.690795e-003,0.29999,60.00000,5.888521e-006
 491.07001,459.21931, 1.698123e-003,0.29999,60.00000,5.893660e-006
 492.07001,459.02298, 1.705083e-003,0.29999,60.00000,5.897464e-006
 493.07001,458.82592, 1.712168e-003,0.29998,60.00000,5.901619e-006
 494.07001,458.62787, 1.719530e-003,0.30002,60.00000,5.906749e-006
 495.07001,458.42930, 1.726989e-003,0.29999,60.00000,5.912180e-006
 496.07001,458.22999, 1.733996e-003,0.30000,60.00000,5.916042e-006
 497.07001,458.03047, 1.741266e-003,0.29997,60.00000,5.920790e-006
 498.07001,457.83130, 1.748294e-003,0.30000,60.00000,5.924596e-006
 499.07001,457.63224, 1.755515e-003,0.29995,60.00000,5.929128e-006
 500.07001,457.43325, 1.762598e-003,0.29999,60.00000,5.933172e-006
 501.07001,457.23493, 1.769577e-003,0.29999,60.00000,5.936684e-006
 502.07001,457.03749, 1.777019e-003,0.30002,60.00000,5.941810e-006
 503.07001,456.84013, 1.784433e-003,0.30000,60.00000,5.946826e-006
 504.07001,456.64261, 1.791440e-003,0.29998,60.00000,5.950468e-006
 505.07001,456.44491, 1.798843e-003,0.29998,60.00000,5.955357e-006
 506.07001,456.24690, 1.806439e-003,0.30000,60.00000,5.960934e-006
 507.07001,456.04835, 1.813781e-003,0.30001,60.00000,5.965562e-006
 508.07001,455.84976, 1.821060e-003,0.30003,60.00000,5.969957e-006
 509.07001,455.65075, 1.827708e-003,0.30002,60.00000,5.972166e-006
 510.07001,455.45104, 1.834515e-003,0.30001,60.00000,5.975070e-006
 511.07001,455.25086, 1.840149e-003,0.30001,60.00000,5.973839e-006
 512.07001,455.05040, 1.848000e-003,0.30002,60.00000,5.980098e-006
 513.07001,454.85021, 1.855315e-003,0.29999,60.00000,5.984502e-006
 514.07001,454.65061, 1.862635e-003,0.29999,60.00000,5.988767e-006
 515.07001,454.45148, 1.869878e-003,0.30002,60.00000,5.993045e-006
 516.07001,454.25252, 1.876498e-003,0.29999,60.00000,5.995052e-006
 517.07001,454.05383, 1.883748e-003,0.30000,60.00000,5.999206e-006
 518.07001,453.85569, 1.891098e-003,0.30000,60.00000,6.003527e-006
 519.07001,453.65798, 1.898682e-003,0.29999,60.00000,6.008614e-006
 520.07001,453.46020, 1.905591e-003,0.30002,60.00000,6.011463e-006
 521.07001,453.26224, 1.912501e-003,0.30000,60.00000,6.014416e-006
 522.07001,453.06387, 1.920025e-003,0.30000,60.00000,6.019223e-006
 523.07001,452.86494, 1.927168e-003,0.29998,60.00000,6.022859e-006
 524.07001,452.66566, 1.934447e-003,0.30000,60.00000,6.026805e-006
 525.07001,452.46607, 1.941531e-003,0.29999,60.00000,6.030127e-006
 526.07001,452.26577, 1.948907e-003,0.30000,60.00000,6.034387e-006
 527.07001,452.06538, 1.956218e-003,0.29999,60.00000,6.038514e-006
 528.07001,451.86574, 1.962825e-003,0.30001,60.00000,6.040296e-006
 529.07001,451.66714, 1.970221e-003,0.29999,60.00000,6.044541e-006
 530.07001,451.46981, 1.977516e-003,0.29998,60.00000,6.048417e-006
 531.07001,451.27410, 1.984603e-003,0.30003,60.00000,6.051726e-006
 532.07001,451.07947, 1.991887e-003,0.29998,60.00000,6.055500e-006
 533.07001,450.88534, 1.998982e-003,0.29999,60.00000,6.058663e-006
 534.07001,450.69093, 2.006540e-003,0.29997,60.00000,6.063309e-006
 535.07001,450.49538, 2.013936e-003,0.29979,60.00000,6.067423e-006
 536.07001,450.29867, 2.020971e-003,0.29998,60.00000,6.070340e-006
 537.07001,450.10127, 2.028370e-003,0.29995,60.00000,6.074444e-006
 538.07001,449.90295, 2.036011e-003,0.29998,60.00000,6.079171e-006
 539.07001,449.70345, 2.043543e-003,0.30000,60.00000,6.083636e-006
 540.07001,449.50332, 2.051149e-003,0.29997,60.00000,6.088251e-006
 541.07001,449.30324, 2.058534e-003,0.29999,60.00000,6.092192e-006
 542.07001,449.10305, 2.066444e-003,0.30003,60.00000,6.097670e-006
 543.07001,448.90331, 2.074575e-003,0.30002,60.00000,6.103768e-006
 544.07001,448.70471, 2.082279e-003,0.30002,60.00000,6.108619e-006
 545.07001,448.50695, 2.090164e-003,0.30000,60.00000,6.113881e-006
 546.07001,448.30963, 2.098179e-003,0.30000,60.00000,6.119428e-006
 547.07001,448.11215, 2.106062e-003,0.30001,60.00000,6.124705e-006
 548.07001,447.91434, 2.112013e-003,0.30001,60.00000,6.124264e-006
 549.07001,447.71622, 2.119751e-003,0.29999,60.00000,6.128917e-006
 550.07001,447.51771, 2.126570e-003,0.29999,60.00000,6.131078e-006
 551.07001,447.31867, 2.129539e-003,0.30000,60.00000,6.121762e-006
 552.07001,447.11952, 2.137153e-003,0.30000,60.00000,6.126121e-006
 553.07001,446.91965, 2.144285e-003,0.29999,60.00000,6.128947e-006
 554.07001,446.71864, 2.148257e-003,0.30002,60.00000,6.122722e-006
 555.07001,446.51712, 2.154640e-003,0.29999,60.00000,6.123496e-006
 556.07001,446.31548, 2.162372e-003,0.29999,60.00000,6.128216e-006
 557.07001,446.11364, 2.170410e-003,0.29999,60.00000,6.133767e-006
 558.07001,445.91194, 2.178412e-003,0.29999,60.00000,6.139033e-006
 559.07001,445.71054, 2.186416e-003,0.29999,60.00000,6.144367e-006
 560.07001,445.50921, 2.194439e-003,0.30001,60.00000,6.149708e-006
 561.07001,445.30845, 2.201564e-003,0.30001,60.00000,6.152504e-006
 562.07001,445.10832, 2.209288e-003,0.30000,60.00000,6.156983e-006
 563.07001,444.90879, 2.217090e-003,0.29999,60.00000,6.161700e-006
 564.07001,444.70948, 2.224657e-003,0.30000,60.00000,6.165602e-006
 565.07001,444.51014, 2.232364e-003,0.29999,60.00000,6.169891e-006
 566.07001,444.30972, 2.240121e-003,0.29999,60.00000,6.174411e-006
 567.07001,444.10820, 2.247122e-003,0.30001,60.00000,6.176777e-006
 568.07001,443.90645, 2.254563e-003,0.29999,60.00000,6.180256e-006
 569.07001,443.70434, 2.262334e-003,0.29999,60.00000,6.184657e-006
 570.07001,443.50203, 2.269949e-003,0.29998,60.00000,6.188696e-006
 571.07001,443.29959, 2.277716e-003,0.30000,60.00000,6.193070e-006
 572.07001,443.09679, 2.285812e-003,0.30000,60.00000,6.198288e-006
 573.07001,442.89393, 2.293965e-003,0.29990,60.00000,6.203599e-006
 574.07001,442.69215, 2.302525e-003,0.30011,60.00000,6.210170e-006
 575.07001,442.49125, 2.310598e-003,0.30000,60.00000,6.215268e-006
 576.07001,442.29106, 2.318381e-003,0.30001,60.00000,6.219501e-006
 577.07001,442.09093, 2.326604e-003,0.30000,60.00000,6.224996e-006
 578.07001,441.88989, 2.334671e-003,0.30001,60.00000,6.229939e-006
 579.07001,441.68809, 2.342613e-003,0.29999,60.00000,6.234634e-006
 580.07001,441.48587, 2.349329e-003,0.30002,60.00000,6.235922e-006
 581.07001,441.28330, 2.356599e-003,0.30001,60.00000,6.238740e-006
 582.07001,441.08008, 2.364940e-003,0.29999,60.00000,6.244344e-006
 583.07001,440.87617, 2.373073e-003,0.30000,60.00000,6.249367e-006
 584.07001,440.67179, 2.380792e-003,0.29999,60.00000,6.253351e-006
 585.07001,440.46725, 2.388760e-003,0.29999,60.00000,6.257980e-006
 586.07001,440.26264, 2.397175e-003,0.29998,60.00000,6.263686e-006
 587.07001,440.05838, 2.404963e-003,0.30000,60.00000,6.267686e-006
 588.07001,439.85547, 2.412661e-003,0.29999,60.00000,6.271541e-006
 589.07001,439.65406, 2.420476e-003,0.29998,60.00000,6.275610e-006
 590.07001,439.45403, 2.428748e-003,0.29995,60.00000,6.280835e-006
 591.07001,439.25519, 2.436748e-003,0.30000,60.00000,6.285268e-006
 592.07001,439.05683, 2.444974e-003,0.30001,60.00000,6.290362e-006
 593.07001,438.85893, 2.453131e-003,0.29996,60.00000,6.295299e-006
 594.07001,438.66153, 2.460975e-003,0.29998,60.00000,6.299322e-006
 595.07001,438.46409, 2.469030e-003,0.30001,60.00000,6.303897e-006
 596.07001,438.26610, 2.476881e-003,0.30002,60.00000,6.307821e-006
 597.07001,438.06771, 2.484585e-003,0.30002,60.00000,6.311496e-006
 598.07001,437.86880, 2.491540e-003,0.30000,60.00000,6.313169e-006
 599.07001,437.66969, 2.499065e-003,0.29998,60.00000,6.316312e-006
 600.07001,437.47031, 2.507021e-003,0.30000,60.00000,6.320452e-006
 601.07001,437.27075, 2.514585e-003,0.30001,60.00000,6.323621e-006
 602.07001,437.07123, 2.522589e-003,0.29999,60.00000,6.327927e-006
 603.07001,436.87163, 2.530108e-003,0.29997,60.00000,6.331024e-006
 604.07001,436.67192, 2.537710e-003,0.29996,60.00000,6.334215e-006
 605.07001,436.47221, 2.545425e-003,0.30004,60.00000,6.337691e-006
 606.07001,436.27244, 2.553414e-003,0.30001,60.00000,6.341923e-006
 607.07001,436.07285, 2.561068e-003,0.29999,60.00000,6.345144e-006
 608.07001,435.87346, 2.568760e-003,0.29998,60.00000,6.348537e-006
 609.07001,435.67387, 2.576417e-003,0.30001,60.00000,6.351746e-006
 610.07001,435.47354, 2.584180e-003,0.29998,60.00000,6.355352e-006
 611.07001,435.27197, 2.592107e-003,0.29999,60.00000,6.359162e-006
 612.07001,435.06946, 2.599540e-003,0.29999,60.00000,6.361928e-006
 613.07001,434.86592, 2.607544e-003,0.30000,60.00000,6.365951e-006
 614.07001,434.66236, 2.615563e-003,0.30001,60.00000,6.370063e-006
 615.07001,434.45908, 2.623853e-003,0.30000,60.00000,6.374838e-006
 616.07001,434.25606, 2.631552e-003,0.30001,60.00000,6.378126e-006
 617.07001,434.05315, 2.639335e-003,0.29999,60.00000,6.381555e-006
 618.07001,433.85033, 2.640576e-003,0.30000,60.00000,6.369005e-006
 619.07001,433.64725, 2.648646e-003,0.30001,60.00000,6.373127e-006
 620.07001,433.44392, 2.656885e-003,0.29997,60.00000,6.377692e-006
 621.07001,433.24011, 2.665419e-003,0.30001,60.00000,6.382904e-006
 622.07001,433.03592, 2.673858e-003,0.29997,60.00000,6.387926e-006
 623.07001,432.83212, 2.682685e-003,0.30000,60.00000,6.393813e-006
 624.07001,432.62874, 2.691613e-003,0.29999,60.00000,6.399939e-006
 625.07001,432.42634, 2.700465e-003,0.29999,60.00000,6.405840e-006
 626.07001,432.22490, 2.709181e-003,0.30001,60.00000,6.411459e-006
 627.07001,432.02406, 2.716520e-003,0.29997,60.00000,6.413648e-006
 628.07001,431.82412, 2.724500e-003,0.29999,60.00000,6.417374e-006
 629.07001,431.62456, 2.733329e-003,0.29995,60.00000,6.423118e-006
 630.07001,431.42503, 2.741905e-003,0.29998,60.00000,6.428226e-006
 631.07001,431.22557, 2.750310e-003,0.30001,60.00000,6.432911e-006
 632.07001,431.02603, 2.758611e-003,0.30001,60.00000,6.437316e-006
 633.07001,430.82626, 2.766978e-003,0.29998,60.00000,6.441962e-006
 634.07001,430.62614, 2.775494e-003,0.29997,60.00000,6.446822e-006
 635.07001,430.42570, 2.783984e-003,0.30002,60.00000,6.451638e-006
 636.07001,430.22517, 2.792112e-003,0.30000,60.00000,6.455564e-006
 637.07001,430.02464, 2.800504e-003,0.30001,60.00000,6.460079e-006
 638.07001,429.82366, 2.808723e-003,0.30000,60.00000,6.464112e-006
 639.07001,429.62201, 2.816981e-003,0.29992,60.00000,6.468411e-006
 640.07001,429.42043, 2.825522e-003,0.29989,60.00000,6.473250e-006
 641.07001,429.21900, 2.834063e-003,0.30002,60.00000,6.477987e-006
 642.07001,429.01703, 2.842528e-003,0.30001,60.00000,6.482606e-006
 643.07001,428.81435, 2.848751e-003,0.29998,60.00000,6.481961e-006
 644.07001,428.61098, 2.857450e-003,0.29999,60.00000,6.487105e-006
 645.07001,428.40747, 2.864761e-003,0.30001,60.00000,6.489047e-006
 646.07001,428.20445, 2.873575e-003,0.29998,60.00000,6.494363e-006
 647.07001,428.00167, 2.882387e-003,0.30001,60.00000,6.499609e-006
 648.07001,427.79900, 2.891325e-003,0.29998,60.00000,6.505156e-006
 649.07001,427.59646, 2.899721e-003,0.29997,60.00000,6.509572e-006
 650.07001,427.39462, 2.908289e-003,0.29997,60.00000,6.514188e-006
 651.07001,427.19404, 2.916863e-003,0.30000,60.00000,6.518849e-006
 652.07001,426.99428, 2.925716e-003,0.29999,60.00000,6.524204e-006
 653.07001,426.79552, 2.934571e-003,0.29998,60.00000,6.529382e-006
 654.07001,426.59751, 2.943123e-003,0.30004,60.00000,6.533963e-006
 655.07001,426.39952, 2.951453e-003,0.29999,60.00000,6.538004e-006
 656.07001,426.20103, 2.959253e-003,0.30000,60.00000,6.540779e-006
 657.07001,426.00205, 2.965820e-003,0.30003,60.00000,6.540828e-006
 658.07001,425.80284, 2.972398e-003,0.30000,60.00000,6.540953e-006
 659.07001,425.60350, 2.981248e-003,0.30000,60.00000,6.546112e-006
 660.07001,425.40408, 2.990083e-003,0.29999,60.00000,6.551191e-006
 661.07001,425.20438, 2.998702e-003,0.30002,60.00000,6.555766e-006
 662.07001,425.00438, 3.007226e-003,0.30000,60.00000,6.560040e-006
 663.07001,424.80408, 3.015841e-003,0.29999,60.00000,6.564661e-006
 664.07001,424.60317, 3.023786e-003,0.30003,60.00000,6.567686e-006
 665.07001,424.40247, 3.031359e-003,0.30001,60.00000,6.569930e-006
 666.07001,424.20197, 3.039486e-003,0.30000,60.00000,6.573314e-006
 667.07001,424.00161, 3.047940e-003,0.29999,60.00000,6.577445e-006
 668.07001,423.80171, 3.056174e-003,0.30001,60.00000,6.581049e-006
 669.07001,423.60258, 3.064559e-003,0.29996,60.00000,6.584981e-006
 670.07001,423.40370, 3.072854e-003,0.30002,60.00000,6.588740e-006
 671.07001,423.20502, 3.081676e-003,0.30003,60.00000,6.593552e-006
 672.07001,423.00648, 3.090304e-003,0.30001,60.00000,6.597909e-006
 673.07001,422.80747, 3.099112e-003,0.30000,60.00000,6.602705e-006
 674.07001,422.60827, 3.107865e-003,0.29999,60.00000,6.607396e-006
 675.07001,422.40852, 3.116777e-003,0.30002,60.00000,6.612253e-006
 676.07001,422.20787, 3.125201e-003,0.30000,60.00000,6.616212e-006
 677.07001,422.00647, 3.134367e-003,0.30001,60.00000,6.621649e-006
 678.07001,421.80475, 3.143278e-003,0.30001,60.00000,6.626552e-006
 679.07001,421.60312, 3.151935e-003,0.29999,60.00000,6.630826e-006
 680.07001,421.40175, 3.160206e-003,0.30000,60.00000,6.634338e-006
 681.07001,421.20078, 3.169424e-003,0.29999,60.00000,6.639819e-006
 682.07001,421.00079, 3.178086e-003,0.30000,60.00000,6.644097e-006
 683.07001,420.80136, 3.187035e-003,0.29998,60.00000,6.649025e-006
 684.07001,420.60196, 3.195075e-003,0.30001,60.00000,6.651948e-006
 685.07001,420.40318, 3.204363e-003,0.29999,60.00000,6.657516e-006
 686.07001,420.20573, 3.213296e-003,0.30001,60.00000,6.662255e-006
 687.07001,420.00891, 3.222768e-003,0.29997,60.00000,6.668143e-006
 688.07001,419.81188, 3.231881e-003,0.29999,60.00000,6.673311e-006
 689.07001,419.61440, 3.241249e-003,0.30000,60.00000,6.678844e-006
 690.07001,419.41593, 3.250199e-003,0.30001,60.00000,6.683551e-006
 691.07001,419.21665, 3.259477e-003,0.30000,60.00000,6.689008e-006
 692.07001,419.01711, 3.268421e-003,0.30001,60.00000,6.693725e-006
 693.07001,418.81723, 3.277128e-003,0.29998,60.00000,6.697852e-006
 694.07001,418.61704, 3.286062e-003,0.29998,60.00000,6.702497e-006
 695.07001,418.41559, 3.292656e-003,0.29999,60.00000,6.702254e-006
 696.07001,418.21384, 3.301376e-003,0.29997,60.00000,6.706421e-006
 697.07001,418.01277, 3.309543e-003,0.29999,60.00000,6.709430e-006
 698.07001,417.81145, 3.306249e-003,0.30000,60.00000,6.688902e-006
 699.07001,417.60922, 3.314931e-003,0.30004,60.00000,6.692999e-006
 700.07001,417.40637, 3.323946e-003,0.30002,60.00000,6.697689e-006
 701.07001,417.20377, 3.332929e-003,0.29998,60.00000,6.702411e-006
 702.07001,417.00133, 3.341533e-003,0.29998,60.00000,6.706225e-006
 703.07001,416.79947, 3.350539e-003,0.29990,60.00000,6.710921e-006
 704.07001,416.59788, 3.359516e-003,0.30000,60.00000,6.715503e-006
 705.07001,416.39632, 3.368686e-003,0.30000,60.00000,6.720424e-006
 706.07001,416.19508, 3.377498e-003,0.29998,60.00000,6.724638e-006
 707.07001,415.99382, 3.386527e-003,0.29999,60.00000,6.729336e-006
 708.07001,415.79234, 3.395507e-003,0.30000,60.00000,6.733823e-006
 709.07001,415.59062, 3.404407e-003,0.30001,60.00000,6.738169e-006
 710.07001,415.38870, 3.413025e-003,0.29999,60.00000,6.741872e-006
 711.07001,415.18709, 3.421763e-003,0.29999,60.00000,6.745874e-006
 712.07001,414.98581, 3.429970e-003,0.29999,60.00000,6.748810e-006
 713.07001,414.78434, 3.438735e-003,0.30001,60.00000,6.752819e-006
 714.07001,414.58258, 3.447833e-003,0.30000,60.00000,6.757450e-006
 715.07001,414.38123, 3.457286e-003,0.30002,60.00000,6.762799e-006
 716.07001,414.18006, 3.465876e-003,0.30001,60.00000,6.766426e-006
 717.07001,413.97865, 3.475116e-003,0.30000,60.00000,6.771346e-006
 718.07001,413.77704, 3.483825e-003,0.29997,60.00000,6.775109e-006
 719.07001,413.57543, 3.492720e-003,0.29999,60.00000,6.779275e-006
 720.07001,413.37422, 3.501553e-003,0.29999,60.00000,6.783311e-006
 721.07001,413.17330, 3.509376e-003,0.29997,60.00000,6.785320e-006
 722.07001,412.97249, 3.518521e-003,0.30002,60.00000,6.789955e-006
 723.07001,412.77222, 3.525016e-003,0.29999,60.00000,6.789324e-006
 724.07001,412.57277, 3.533105e-003,0.29998,60.00000,6.791924e-006
 725.07001,412.37386, 3.542313e-003,0.29998,60.00000,6.796615e-006
 726.07001,412.17530, 3.551317e-003,0.30000,60.00000,6.800850e-006
 727.07001,411.97699, 3.560270e-003,0.30000,60.00000,6.805041e-006
 728.07001,411.77893, 3.569237e-003,0.29998,60.00000,6.809230e-006
 729.07001,411.58092, 3.577653e-003,0.30000,60.00000,6.812298e-006
 730.07001,411.38293, 3.586316e-003,0.29999,60.00000,6.815857e-006
 731.07001,411.18484, 3.595062e-003,0.30000,60.00000,6.819546e-006
 732.07001,410.98662, 3.603674e-003,0.29998,60.00000,6.822967e-006
 733.07001,410.78791, 3.612500e-003,0.29999,60.00000,6.826763e-006
 734.07001,410.58834, 3.620873e-003,0.30001,60.00000,6.829797e-006
 735.07001,410.38800, 3.630178e-003,0.29999,60.00000,6.834423e-006
 736.07001,410.18718, 3.639066e-003,0.29999,60.00000,6.838377e-006
 737.07001,409.98615, 3.647807e-003,0.30001,60.00000,6.841997e-006
 738.07001,409.78525, 3.656791e-003,0.29999,60.00000,6.846075e-006
 739.07001,409.58452, 3.665776e-003,0.30001,60.00000,6.850085e-006
 740.07001,409.38383, 3.674256e-003,0.29999,60.00000,6.853182e-006
 741.07001,409.18352, 3.683295e-003,0.30002,60.00000,6.857277e-006
 742.07001,408.98411, 3.691702e-003,0.30000,60.00000,6.860249e-006
 743.07001,408.78525, 3.700755e-003,0.30001,60.00000,6.864355e-006
 744.07001,408.58669, 3.709321e-003,0.29999,60.00000,6.867518e-006
 745.07001,408.38786, 3.717969e-003,0.29999,60.00000,6.870839e-006
 746.07001,408.18823, 3.726404e-003,0.29999,60.00000,6.873722e-006
 747.07001,407.98792, 3.735042e-003,0.29999,60.00000,6.877057e-006
 748.07001,407.78735, 3.743960e-003,0.30001,60.00000,6.880850e-006
 749.07001,407.58681, 3.752872e-003,0.30003,60.00000,6.884612e-006
 750.07001,407.38616, 3.761517e-003,0.30000,60.00000,6.887898e-006
 751.07001,407.18522, 3.770543e-003,0.30001,60.00000,6.891785e-006
 752.07001,406.98364, 3.779291e-003,0.29999,60.00000,6.895262e-006
 753.07001,406.78187, 3.788364e-003,0.29999,60.00000,6.899212e-006
 754.07001,406.58051, 3.797394e-003,0.30001,60.00000,6.903145e-006
 755.07001,406.37893, 3.806279e-003,0.30001,60.00000,6.906781e-006
 756.07001,406.17774, 3.815308e-003,0.29999,60.00000,6.910696e-006
 757.07001,405.97679, 3.824239e-003,0.29998,60.00000,6.914348e-006
 758.07001,405.77603, 3.833148e-003,0.29999,60.00000,6.918038e-006
 759.07001,405.57539, 3.842115e-003,0.29999,60.00000,6.921735e-006
 760.07001,405.37411, 3.851216e-003,0.29998,60.00000,6.925679e-006
 761.07001,405.17246, 3.860181e-003,0.30000,60.00000,6.929437e-006
 762.07001,404.97060, 3.869684e-003,0.30001,60.00000,6.934103e-006
 763.07001,404.76868, 3.879366e-003,0.30001,60.00000,6.939003e-006
 764.07001,404.56705, 3.889079e-003,0.30001,60.00000,6.944049e-006
 765.07001,404.36545, 3.898453e-003,0.29999,60.00000,6.948387e-006
 766.07001,404.16360, 3.907887e-003,0.29999,60.00000,6.952917e-006
 767.07001,403.96124, 3.917043e-003,0.30002,60.00000,6.956831e-006
 768.07001,403.75857, 3.926492e-003,0.29999,60.00000,6.961314e-006
 769.07001,403.55532, 3.935747e-003,0.29999,60.00000,6.965405e-006
 770.07001,403.35189, 3.945004e-003,0.29999,60.00000,6.969545e-006
 771.07001,403.14885, 3.953972e-003,0.30002,60.00000,6.973103e-006
 772.07001,402.94604, 3.963148e-003,0.29999,60.00000,6.976976e-006
 773.07001,402.74327, 3.972273e-003,0.30002,60.00000,6.980807e-006
 774.07001,402.54028, 3.981616e-003,0.30002,60.00000,6.985037e-006
 775.07001,402.33815, 3.990674e-003,0.29999,60.00000,6.988685e-006
 776.07001,402.13701, 3.999824e-003,0.30000,60.00000,6.992462e-006
 777.07001,401.93570, 4.009025e-003,0.30000,60.00000,6.996357e-006
 778.07001,401.73340, 4.017962e-003,0.30000,60.00000,6.999730e-006
 779.07001,401.53063, 4.027004e-003,0.29999,60.00000,7.003386e-006
 780.07001,401.32793, 4.034593e-003,0.30002,60.00000,7.004419e-006
 781.07001,401.12546, 4.043874e-003,0.29999,60.00000,7.008420e-006
 782.07001,400.92387, 4.052762e-003,0.30002,60.00000,7.011675e-006
 783.07001,400.72318, 4.061879e-003,0.29999,60.00000,7.015375e-006
 784.07001,400.52270, 4.071108e-003,0.30001,60.00000,7.019221e-006
 785.07001,400.32249, 4.080423e-003,0.30000,60.00000,7.023214e-006
 786.07001,400.12284, 4.088685e-003,0.29999,60.00000,7.025379e-006
 787.07001,399.92332, 4.097920e-003,0.30001,60.00000,7.029128e-006
 788.07001,399.72391, 4.104443e-003,0.30000,60.00000,7.028328e-006
 789.07001,399.52450, 4.113825e-003,0.29986,60.00000,7.032375e-006
 790.07001,399.32519, 4.123096e-003,0.29998,60.00000,7.036204e-006
 791.07001,399.12595, 4.132861e-003,0.30001,60.00000,7.040898e-006
 792.07001,398.92645, 4.142086e-003,0.30001,60.00000,7.044672e-006
 793.07001,398.72664, 4.151089e-003,0.30000,60.00000,7.048073e-006
 794.07001,398.52680, 4.160281e-003,0.30002,60.00000,7.051709e-006
 795.07001,398.32718, 4.169566e-003,0.29999,60.00000,7.055540e-006
 796.07001,398.12812, 4.178353e-003,0.29997,60.00000,7.058491e-006
 797.07001,397.92943, 4.187431e-003,0.29999,60.00000,7.061904e-006
 798.07001,397.73071, 4.196569e-003,0.29998,60.00000,7.065438e-006
 799.07001,397.53174, 4.205565e-003,0.30000,60.00000,7.068726e-006
 800.07001,397.33193, 4.213765e-003,0.29998,60.00000,7.070587e-006
 801.07001,397.13123, 4.222877e-003,0.30001,60.00000,7.074076e-006
 802.07001,396.93026, 4.231709e-003,0.30000,60.00000,7.077016e-006
 803.07001,396.72967, 4.240818e-003,0.30000,60.00000,7.080479e-006
 804.07001,396.52929, 4.249636e-003,0.30001,60.00000,7.083417e-006
 805.07001,396.32900, 4.258412e-003,0.30002,60.00000,7.086198e-006
 806.07001,396.12872, 4.267408e-003,0.29996,60.00000,7.089385e-006
 807.07001,395.92843, 4.276023e-003,0.29999,60.00000,7.092004e-006
 808.07001,395.72816, 4.284740e-003,0.29999,60.00000,7.094763e-006
 809.07001,395.52672, 4.293507e-003,0.30001,60.00000,7.097512e-006
 810.07001,395.32381, 4.301711e-003,0.30001,60.00000,7.099353e-006
 811.07001,395.11961, 4.310719e-003,0.30000,60.00000,7.102507e-006
 812.07001,394.91456, 4.319512e-003,0.30000,60.00000,7.105315e-006
 813.07001,394.71019, 4.328755e-003,0.29996,60.00000,7.108877e-006
 814.07001,394.50696, 4.337853e-003,0.29999,60.00000,7.112164e-006
 815.07001,394.30409, 4.346818e-003,0.30000,60.00000,7.115281e-006
 816.07001,394.10095, 4.355859e-003,0.30000,60.00000,7.118433e-006
 817.07001,393.89836, 4.365374e-003,0.29989,60.00000,7.122413e-006
 818.07001,393.69688, 4.374647e-003,0.29995,60.00000,7.125921e-006
 819.07001,393.49617, 4.384206e-003,0.30001,60.00000,7.129936e-006
 820.07001,393.29576, 4.393532e-003,0.29999,60.00000,7.133538e-006
 821.07001,393.09528, 4.402850e-003,0.29999,60.00000,7.137079e-006
 822.07001,392.89426, 4.412186e-003,0.29999,60.00000,7.140616e-006
 823.07001,392.69270, 4.421389e-003,0.30001,60.00000,7.144036e-006
 824.07001,392.49064, 4.430822e-003,0.29996,60.00000,7.147732e-006
 825.07001,392.28802, 4.440373e-003,0.29999,60.00000,7.151605e-006
 826.07001,392.08515, 4.450006e-003,0.29999,60.00000,7.155692e-006
 827.07001,391.88287, 4.459295e-003,0.29999,60.00000,7.159181e-006
 828.07001,391.68131, 4.468990e-003,0.29999,60.00000,7.163275e-006
 829.07001,391.48000, 4.478203e-003,0.30000,60.00000,7.166562e-006
 830.07001,391.27868, 4.487770e-003,0.29999,60.00000,7.170420e-006
 831.07001,391.07743, 4.496866e-003,0.30000,60.00000,7.173568e-006
 832.07001,390.87603, 4.505882e-003,0.30000,60.00000,7.176538e-006
 833.07001,390.67418, 4.515332e-003,0.29999,60.00000,7.180174e-006
 834.07001,390.47242, 4.524709e-003,0.30000,60.00000,7.183644e-006
 835.07001,390.27063, 4.533795e-003,0.30000,60.00000,7.186728e-006
 836.07001,390.06879, 4.543357e-003,0.29998,60.00000,7.190512e-006
 837.07001,389.86728, 4.552919e-003,0.30000,60.00000,7.194295e-006
 838.07001,389.66622, 4.562303e-003,0.29999,60.00000,7.197781e-006
 839.07001,389.46576, 4.571213e-003,0.30000,60.00000,7.200531e-006
 840.07001,389.26564, 4.580495e-003,0.30000,60.00000,7.203799e-006
 841.07001,389.06542, 4.589657e-003,0.29999,60.00000,7.206900e-006
 842.07001,388.86511, 4.598745e-003,0.30000,60.00000,7.209917e-006
 843.07001,388.66485, 4.607994e-003,0.30000,60.00000,7.213075e-006
 844.07001,388.46419, 4.617315e-003,0.29988,60.00000,7.216400e-006
 845.07001,388.26332, 4.626543e-003,0.29999,60.00000,7.219595e-006
 846.07001,388.06260, 4.635791e-003,0.29999,60.00000,7.222733e-006
 847.07001,387.86235, 4.645507e-003,0.30001,60.00000,7.226735e-006
 848.07001,387.66274, 4.655210e-003,0.30000,60.00000,7.230568e-006
 849.07001,387.46398, 4.664478e-003,0.29999,60.00000,7.233759e-006
 850.07001,387.26561, 4.674202e-003,0.29999,60.00000,7.237705e-006
 851.07001,387.06727, 4.683845e-003,0.30001,60.00000,7.241418e-006
 852.07001,386.86959, 4.693599e-003,0.29998,60.00000,7.245325e-006
 853.07001,386.67206, 4.702962e-003,0.29998,60.00000,7.248622e-006
 854.07001,386.47392, 4.712779e-003,0.30002,60.00000,7.252590e-006
 855.07001,386.27543, 4.722125e-003,0.29998,60.00000,7.255870e-006
 856.07001,386.07662, 4.731555e-003,0.29999,60.00000,7.259200e-006
 857.07001,385.87736, 4.740807e-003,0.29998,60.00000,7.262293e-006
 858.07001,385.67798, 4.750535e-003,0.29999,60.00000,7.266072e-006
 859.07001,385.47813, 4.759684e-003,0.30001,60.00000,7.269028e-006
 860.07001,385.27730, 4.769480e-003,0.29999,60.00000,7.272864e-006
 861.07001,385.07533, 4.778986e-003,0.29998,60.00000,7.276301e-006
 862.07001,384.87211, 4.788322e-003,0.30000,60.00000,7.279462e-006
 863.07001,384.66828, 4.797388e-003,0.29999,60.00000,7.282248e-006
 864.07001,384.46372, 4.806650e-003,0.30000,60.00000,7.285211e-006
 865.07001,384.25907, 4.815873e-003,0.30000,60.00000,7.288161e-006
 866.07001,384.05533, 4.824852e-003,0.29999,60.00000,7.290794e-006
 867.07001,383.85273, 4.833923e-003,0.30002,60.00000,7.293559e-006
 868.07001,383.65109, 4.843502e-003,0.30000,60.00000,7.296961e-006
 869.07001,383.45015, 4.853080e-003,0.29999,60.00000,7.300426e-006
 870.07001,383.24984, 4.862563e-003,0.30001,60.00000,7.303706e-006
 871.07001,383.04988, 4.872677e-003,0.30016,60.00000,7.307979e-006
 872.07001,382.84932, 4.882913e-003,0.30001,60.00000,7.312394e-006
 873.07001,382.64865, 4.892897e-003,0.29999,60.00000,7.316451e-006
 874.07001,382.44799, 4.902682e-003,0.29998,60.00000,7.320133e-006
 875.07001,382.24621, 4.912847e-003,0.29999,60.00000,7.324409e-006
 876.07001,382.04333, 4.922590e-003,0.30001,60.00000,7.328067e-006
 877.07001,381.83994, 4.932289e-003,0.30000,60.00000,7.331601e-006
 878.07001,381.63652, 4.942045e-003,0.29999,60.00000,7.335272e-006
 879.07001,381.43317, 4.951922e-003,0.30001,60.00000,7.339034e-006
 880.07001,381.22972, 4.961442e-003,0.30001,60.00000,7.342300e-006
 881.07001,381.02701, 4.971210e-003,0.29999,60.00000,7.345914e-006
 882.07001,380.82512, 4.981621e-003,0.29997,60.00000,7.350415e-006
 883.07001,380.62299, 4.991891e-003,0.29998,60.00000,7.354817e-006
 884.07001,380.42054, 5.002570e-003,0.29998,60.00000,7.359727e-006
 885.07001,380.21817, 5.012936e-003,0.30002,60.00000,7.364178e-006
 886.07001,380.01597, 5.022893e-003,0.29998,60.00000,7.368043e-006
 887.07001,379.81349, 5.033073e-003,0.29998,60.00000,7.372154e-006
 888.07001,379.61070, 5.043281e-003,0.29999,60.00000,7.376369e-006
 889.07001,379.40814, 5.053086e-003,0.29998,60.00000,7.379984e-006
 890.07001,379.20476, 5.062662e-003,0.29999,60.00000,7.383123e-006
 891.07001,379.00020, 5.072482e-003,0.29998,60.00000,7.386757e-006
 892.07001,378.79548, 5.082259e-003,0.29999,60.00000,7.390204e-006
 893.07001,378.59093, 5.092067e-003,0.29998,60.00000,7.393812e-006
 894.07001,378.38696, 5.101957e-003,0.30001,60.00000,7.397444e-006
 895.07001,378.18461, 5.111829e-003,0.30003,60.00000,7.401046e-006
 896.07001,377.98390, 5.122671e-003,0.30000,60.00000,7.406085e-006
 897.07001,377.78439, 5.133217e-003,0.30000,60.00000,7.410621e-006
 898.07001,377.58554, 5.143438e-003,0.30003,60.00000,7.414697e-006
 899.07001,377.38718, 5.153719e-003,0.30000,60.00000,7.418830e-006
 900.07001,377.18926, 5.163920e-003,0.30001,60.00000,7.422918e-006
 901.07001,376.98987, 5.174111e-003,0.29999,60.00000,7.426911e-006
 902.07001,376.78942, 5.185012e-003,0.30001,60.00000,7.431886e-006
 903.07001,376.59028, 5.195571e-003,0.29999,60.00000,7.436443e-006
 904.07001,376.39245, 5.206086e-003,0.29999,60.00000,7.440846e-006
 905.07001,376.19487, 5.216448e-003,0.30001,60.00000,7.445107e-006
 906.07001,375.99673, 5.227083e-003,0.29997,60.00000,7.449658e-006
 907.07001,375.79899, 5.238032e-003,0.30001,60.00000,7.454747e-006
 908.07001,375.60231, 5.248702e-003,0.29998,60.00000,7.459322e-006
 909.07001,375.40665, 5.259463e-003,0.29999,60.00000,7.463989e-006
 910.07001,375.21144, 5.269603e-003,0.29998,60.00000,7.467823e-006
 911.07001,375.01567, 5.279823e-003,0.30001,60.00000,7.471736e-006
 912.07001,374.81926, 5.290552e-003,0.29997,60.00000,7.476351e-006
 913.07001,374.62270, 5.300962e-003,0.29997,60.00000,7.480574e-006
 914.07001,374.42587, 5.311346e-003,0.29999,60.00000,7.484648e-006
 915.07001,374.22848, 5.321294e-003,0.30001,60.00000,7.488216e-006
 916.07001,374.03009, 5.331543e-003,0.30001,60.00000,7.492099e-006
 917.07001,373.83084, 5.341612e-003,0.29997,60.00000,7.495750e-006
 918.07001,373.63095, 5.351806e-003,0.29998,60.00000,7.499532e-006
 919.07001,373.43036, 5.361498e-003,0.29991,60.00000,7.502637e-006
 920.07001,373.22792, 5.371909e-003,0.29993,60.00000,7.506710e-006
 921.07001,373.02289, 5.382263e-003,0.30000,60.00000,7.510782e-006
 922.07001,372.81589, 5.392580e-003,0.30002,60.00000,7.514676e-006
 923.07001,372.60765, 5.402964e-003,0.30000,60.00000,7.518731e-006
 924.07001,372.39976, 5.413467e-003,0.30000,60.00000,7.522897e-006
 925.07001,372.19316, 5.423437e-003,0.29998,60.00000,7.526368e-006
 926.07001,371.98731, 5.434260e-003,0.29998,60.00000,7.530926e-006
 927.07001,371.78282, 5.444705e-003,0.29998,60.00000,7.535021e-006
 928.07001,371.58034, 5.455430e-003,0.29999,60.00000,7.539474e-006
 929.07001,371.37945, 5.465070e-003,0.29998,60.00000,7.542379e-006
 930.07001,371.17959, 5.475768e-003,0.30001,60.00000,7.546726e-006
 931.07001,370.98065, 5.486405e-003,0.29999,60.00000,7.551059e-006
 932.07001,370.78228, 5.497222e-003,0.29998,60.00000,7.555537e-006
 933.07001,370.58393, 5.507883e-003,0.30000,60.00000,7.559849e-006
 934.07001,370.38593, 5.518680e-003,0.30002,60.00000,7.564312e-006
 935.07001,370.18870, 5.529531e-003,0.30002,60.00000,7.568806e-006
 936.07001,369.99130, 5.540178e-003,0.30004,60.00000,7.573048e-006
 937.07001,369.79233, 5.551084e-003,0.30002,60.00000,7.577673e-006
 938.07001,369.59230, 5.561497e-003,0.29997,60.00000,7.581550e-006
 939.07001,369.39182, 5.572195e-003,0.30000,60.00000,7.585837e-006
 940.07001,369.18959, 5.582588e-003,0.30000,60.00000,7.589629e-006
 941.07001,368.98488, 5.593258e-003,0.29997,60.00000,7.593872e-006
 942.07001,368.77871, 5.603655e-003,0.29997,60.00000,7.597733e-006
 943.07001,368.57324, 5.615011e-003,0.30000,60.00000,7.602865e-006
 944.07001,368.36862, 5.626563e-003,0.30000,60.00000,7.608248e-006
 945.07001,368.16478, 5.637411e-003,0.30002,60.00000,7.612681e-006
 946.07001,367.96146, 5.648465e-003,0.29999,60.00000,7.617314e-006
 947.07001,367.75847, 5.659885e-003,0.30000,60.00000,7.622454e-006
 948.07001,367.55618, 5.671429e-003,0.30001,60.00000,7.627745e-006
 949.07001,367.35449, 5.682761e-003,0.30000,60.00000,7.632765e-006
 950.07001,367.15322, 5.693723e-003,0.29999,60.00000,7.637308e-006
 951.07001,366.95196, 5.704962e-003,0.29998,60.00000,7.642125e-006
 952.07001,366.75087, 5.715943e-003,0.29998,60.00000,7.646676e-006
 953.07001,366.55040, 5.726535e-003,0.30000,60.00000,7.650646e-006
 954.07001,366.35083, 5.736897e-003,0.30002,60.00000,7.654278e-006
 955.07001,366.15159, 5.747876e-003,0.30000,60.00000,7.658723e-006
 956.07001,365.95225, 5.759019e-003,0.30000,60.00000,7.663390e-006
 957.07001,365.75285, 5.769965e-003,0.29995,60.00000,7.667828e-006
 958.07001,365.55336, 5.781532e-003,0.30002,60.00000,7.673009e-006
 959.07001,365.35420, 5.792637e-003,0.30001,60.00000,7.677566e-006
 960.07001,365.15566, 5.803414e-003,0.29995,60.00000,7.681690e-006
 961.07001,364.95737, 5.814486e-003,0.29998,60.00000,7.686199e-006
 962.07001,364.75933, 5.825070e-003,0.30002,60.00000,7.690103e-006
 963.07001,364.56168, 5.835827e-003,0.29999,60.00000,7.694165e-006
 964.07001,364.36439, 5.846602e-003,0.29997,60.00000,7.698243e-006
 965.07001,364.16710, 5.858128e-003,0.29996,60.00000,7.703287e-006
 966.07001,363.96911, 5.869160e-003,0.29999,60.00000,7.707734e-006
 967.07001,363.77042, 5.880411e-003,0.30000,60.00000,7.712388e-006
 968.07001,363.57120, 5.891950e-003,0.29999,60.00000,7.717437e-006
 969.07001,363.37117, 5.903311e-003,0.29998,60.00000,7.722227e-006
 970.07001,363.17108, 5.914851e-003,0.29998,60.00000,7.727290e-006
 971.07001,362.97164, 5.926181e-003,0.30000,60.00000,7.731960e-006
 972.07001,362.77300, 5.937354e-003,0.29999,60.00000,7.736510e-006
 973.07001,362.57476, 5.948772e-003,0.30000,60.00000,7.741337e-006
 974.07001,362.37665, 5.960218e-003,0.29997,60.00000,7.746173e-006
 975.07001,362.17887, 5.971472e-003,0.29999,60.00000,7.750807e-006
 976.07001,361.98095, 5.982817e-003,0.30000,60.00000,7.755430e-006
 977.07001,361.78240, 5.993999e-003,0.29999,60.00000,7.759939e-006
 978.07001,361.58345, 6.005268e-003,0.30000,60.00000,7.764528e-006
 979.07001,361.38427, 6.016295e-003,0.29999,60.00000,7.768694e-006
 980.07001,361.18400, 6.027492e-003,0.29999,60.00000,7.773137e-006
 981.07001,360.98172, 6.038276e-003,0.30000,60.00000,7.777071e-006
 982.07001,360.77805, 6.049318e-003,0.30000,60.00000,7.781303e-006
 983.07001,360.57355, 6.060310e-003,0.29997,60.00000,7.785449e-006
 984.07001,360.36882, 6.071460e-003,0.29999,60.00000,7.789873e-006
 985.07001,360.16433, 6.082660e-003,0.30001,60.00000,7.794200e-006
 986.07001,359.95962, 6.093815e-003,0.29996,60.00000,7.798545e-006
 987.07001,359.75536, 6.105830e-003,0.29999,60.00000,7.804003e-006
 988.07001,359.55250, 6.117478e-003,0.29998,60.00000,7.808923e-006
 989.07001,359.35041, 6.129346e-003,0.29998,60.00000,7.814125e-006
 990.07001,359.14838, 6.141313e-003,0.29999,60.00000,7.819471e-006
 991.07001,358.94627, 6.153556e-003,0.29997,60.00000,7.825114e-006
 992.07001,358.74353, 6.165337e-003,0.30000,60.00000,7.830185e-006
 993.07001,358.53989, 6.177353e-003,0.30001,60.00000,7.835508e-006
 994.07001,358.33650, 6.188846e-003,0.29999,60.00000,7.840194e-006
 995.07001,358.13341, 6.200987e-003,0.30000,60.00000,7.845666e-006
 996.07001,357.93015, 6.212606e-003,0.29998,60.00000,7.850479e-006
 997.07001,357.72728, 6.224869e-003,0.30000,60.00000,7.856049e-006
 998.07001,357.52525, 6.236832e-003,0.29999,60.00000,7.861282e-006
 999.07001,357.32373, 6.248595e-003,0.29997,60.00000,7.866233e-006
1000.07001,357.12266, 6.260866e-003,0.30001,60.00000,7.871799e-006
1001.07001,356.92173, 6.272928e-003,0.30000,60.00000,7.877076e-006
1002.07001,356.71994, 6.284669e-003,0.30000,60.00000,7.881959e-006
1003.07001,356.51664, 6.296402e-003,0.30001,60.00000,7.886807e-006
1004.07001,356.31201, 6.308072e-003,0.29999,60.00000,7.891605e-006
1005.07001,356.10582, 6.319561e-003,0.29992,60.00000,7.896109e-006
1006.07001,355.89945, 6.331989e-003,0.30002,60.00000,7.901861e-006
1007.07001,355.69542, 6.345008e-003,0.30001,60.00000,7.908261e-006
1008.07001,355.49295, 6.357617e-003,0.29998,60.00000,7.914122e-006
1009.07001,355.29000, 6.370236e-003,0.30000,60.00000,7.920041e-006
1010.07001,355.08710, 6.382775e-003,0.30000,60.00000,7.925813e-006
1011.07001,354.88584, 6.395704e-003,0.30000,60.00000,7.932044e-006
1012.07001,354.68702, 6.408386e-003,0.30003,60.00000,7.937982e-006
1013.07001,354.48990, 6.420764e-003,0.30000,60.00000,7.943494e-006
1014.07001,354.29211, 6.432952e-003,0.29996,60.00000,7.948736e-006
1015.07001,354.09319, 6.445286e-003,0.30000,60.00000,7.954187e-006
1016.07001,353.89420, 6.457557e-003,0.30001,60.00000,7.959534e-006
1017.07001,353.69546, 6.469410e-003,0.30001,60.00000,7.964391e-006
1018.07001,353.49614, 6.481210e-003,0.30000,60.00000,7.969106e-006
1019.07001,353.29564, 6.492849e-003,0.29999,60.00000,7.973688e-006
1020.07001,353.09467, 6.504417e-003,0.29998,60.00000,7.978103e-006
1021.07001,352.89415, 6.515336e-003,0.29999,60.00000,7.981713e-006
1022.07001,352.69401, 6.527240e-003,0.30001,60.00000,7.986581e-006
1023.07001,352.49455, 6.538987e-003,0.29999,60.00000,7.991180e-006
1024.07001,352.29540, 6.550441e-003,0.29997,60.00000,7.995481e-006
1025.07001,352.09643, 6.562184e-003,0.29994,60.00000,8.000073e-006
1026.07001,351.89794, 6.574475e-003,0.29994,60.00000,8.005310e-006
1027.07001,351.69936, 6.586772e-003,0.30000,60.00000,8.010530e-006
1028.07001,351.50097, 6.599338e-003,0.30001,60.00000,8.016098e-006
1029.07001,351.30287, 6.611504e-003,0.29999,60.00000,8.021220e-006
1030.07001,351.10533, 6.623831e-003,0.29998,60.00000,8.026434e-006
1031.07001,350.90871, 6.635734e-003,0.29998,60.00000,8.031203e-006
1032.07001,350.71216, 6.647725e-003,0.29998,60.00000,8.035989e-006
1033.07001,350.51497, 6.659982e-003,0.29998,60.00000,8.041010e-006
1034.07001,350.31723, 6.671931e-003,0.30003,60.00000,8.045827e-006
1035.07001,350.11874, 6.683565e-003,0.29999,60.00000,8.050193e-006
1036.07001,349.91960, 6.695344e-003,0.30000,60.00000,8.054705e-006
1037.07001,349.71924, 6.707103e-003,0.29997,60.00000,8.059152e-006
1038.07001,349.51715, 6.718988e-003,0.29998,60.00000,8.063789e-006
1039.07001,349.31415, 6.731006e-003,0.29999,60.00000,8.068568e-006
1040.07001,349.11058, 6.742502e-003,0.29999,60.00000,8.072685e-006
1041.07001,348.90604, 6.754122e-003,0.29997,60.00000,8.076975e-006
1042.07001,348.70102, 6.765912e-003,0.29999,60.00000,8.081452e-006
1043.07001,348.49542, 6.778095e-003,0.30002,60.00000,8.086366e-006
1044.07001,348.28913, 6.789947e-003,0.29998,60.00000,8.090878e-006
1045.07001,348.08324, 6.801837e-003,0.29999,60.00000,8.095414e-006
1046.07001,347.87801, 6.813961e-003,0.29998,60.00000,8.100228e-006
1047.07001,347.67360, 6.826728e-003,0.29997,60.00000,8.105832e-006
1048.07001,347.47110, 6.839529e-003,0.29999,60.00000,8.111375e-006
1049.07001,347.26972, 6.852409e-003,0.30000,60.00000,8.117089e-006
1050.07001,347.06812, 6.865551e-003,0.29998,60.00000,8.123085e-006
1051.07001,346.86661, 6.878368e-003,0.29999,60.00000,8.128669e-006
1052.07001,346.66464, 6.891359e-003,0.29997,60.00000,8.134445e-006
1053.07001,346.46186, 6.904295e-003,0.29999,60.00000,8.140093e-006
1054.07001,346.25839, 6.917001e-003,0.29998,60.00000,8.145534e-006
1055.07001,346.05461, 6.929249e-003,0.29997,60.00000,8.150407e-006
1056.07001,345.85132, 6.941429e-003,0.30001,60.00000,8.155189e-006
1057.07001,345.64811, 6.953576e-003,0.30000,60.00000,8.159840e-006
1058.07001,345.44435, 6.965788e-003,0.29999,60.00000,8.164628e-006
1059.07001,345.24029, 6.977926e-003,0.30001,60.00000,8.169336e-006
1060.07001,345.03714, 6.990248e-003,0.30000,60.00000,8.174197e-006
1061.07001,344.83466, 7.002573e-003,0.29995,60.00000,8.179074e-006
1062.07001,344.63256, 7.014694e-003,0.30001,60.00000,8.183707e-006
1063.07001,344.43110, 7.026653e-003,0.29998,60.00000,8.188125e-006
1064.07001,344.22957, 7.039094e-003,0.30000,60.00000,8.193126e-006
1065.07001,344.02773, 7.051749e-003,0.29993,60.00000,8.198332e-006
1066.07001,343.82637, 7.064837e-003,0.29999,60.00000,8.204049e-006
1067.07001,343.62572, 7.077791e-003,0.30002,60.00000,8.209594e-006
1068.07001,343.42562, 7.090558e-003,0.30002,60.00000,8.214921e-006
1069.07001,343.22620, 7.103162e-003,0.29997,60.00000,8.219997e-006
1070.07001,343.02716, 7.115871e-003,0.29998,60.00000,8.225250e-006
1071.07001,342.82831, 7.128506e-003,0.29999,60.00000,8.230335e-006
1072.07001,342.62992, 7.141017e-003,0.29997,60.00000,8.235319e-006
1073.07001,342.43114, 7.153574e-003,0.29998,60.00000,8.240298e-006
1074.07001,342.23194, 7.165841e-003,0.29996,60.00000,8.245001e-006
1075.07001,342.03280, 7.178454e-003,0.29993,60.00000,8.250055e-006
1076.07001,341.83406, 7.191156e-003,0.29998,60.00000,8.255206e-006
1077.07001,341.63578, 7.203850e-003,0.30000,60.00000,8.260295e-006
1078.07001,341.43759, 7.216432e-003,0.29997,60.00000,8.265216e-006
1079.07001,341.23976, 7.228781e-003,0.30001,60.00000,8.269992e-006
1080.07001,341.04233, 7.241260e-003,0.29997,60.00000,8.274789e-006
1081.07001,340.84465, 7.253526e-003,0.29997,60.00000,8.279374e-006
1082.07001,340.64608, 7.265604e-003,0.29997,60.00000,8.283758e-006
1083.07001,340.44699, 7.278200e-003,0.30000,60.00000,8.288746e-006
1084.07001,340.24821, 7.291025e-003,0.30010,60.00000,8.293926e-006
1085.07001,340.04960, 7.304009e-003,0.29999,60.00000,8.299259e-006
1086.07001,339.85039, 7.317057e-003,0.30000,60.00000,8.304680e-006
1087.07001,339.65058, 7.329716e-003,0.30001,60.00000,8.309615e-006
1088.07001,339.44994, 7.342375e-003,0.29998,60.00000,8.314518e-006
1089.07001,339.24779, 7.355119e-003,0.30000,60.00000,8.319600e-006
1090.07001,339.04479, 7.367947e-003,0.30000,60.00000,8.324742e-006
1091.07001,338.84278, 7.380904e-003,0.30001,60.00000,8.330008e-006
1092.07001,338.64182, 7.393542e-003,0.29997,60.00000,8.334838e-006
1093.07001,338.44102, 7.406288e-003,0.30000,60.00000,8.339844e-006
1094.07001,338.24038, 7.418479e-003,0.29999,60.00000,8.344224e-006
1095.07001,338.03978, 7.430889e-003,0.29997,60.00000,8.348822e-006
1096.07001,337.83908, 7.443120e-003,0.29999,60.00000,8.353194e-006
1097.07001,337.63860, 7.455665e-003,0.29998,60.00000,8.357926e-006
1098.07001,337.43773, 7.467987e-003,0.30000,60.00000,8.362452e-006
1099.07001,337.23608, 7.479972e-003,0.29999,60.00000,8.366453e-006
1100.07001,337.03360, 7.492202e-003,0.29999,60.00000,8.370774e-006
1101.07001,336.83015, 7.504287e-003,0.29999,60.00000,8.374970e-006
1102.07001,336.62644, 7.516513e-003,0.29991,60.00000,8.379283e-006
1103.07001,336.42280, 7.529341e-003,0.30001,60.00000,8.384291e-006
1104.07001,336.21939, 7.542248e-003,0.29999,60.00000,8.389341e-006
1105.07001,336.01759, 7.555721e-003,0.29999,60.00000,8.395051e-006
1106.07001,335.81810, 7.569069e-003,0.29998,60.00000,8.400545e-006
1107.07001,335.61930, 7.581903e-003,0.30000,60.00000,8.405421e-006
1108.07001,335.41920, 7.594457e-003,0.30000,60.00000,8.410104e-006
1109.07001,335.21622, 7.606959e-003,0.29999,60.00000,8.414614e-006
1110.07001,335.01164, 7.619817e-003,0.30002,60.00000,8.419595e-006
1111.07001,334.80838, 7.632614e-003,0.29999,60.00000,8.424460e-006
1112.07001,334.60611, 7.645534e-003,0.29998,60.00000,8.429437e-006
1113.07001,334.40402, 7.658207e-003,0.30000,60.00000,8.434137e-006
1114.07001,334.20277, 7.671394e-003,0.29997,60.00000,8.439379e-006
1115.07001,334.00306, 7.684330e-003,0.30000,60.00000,8.444367e-006
1116.07001,333.80333, 7.696943e-003,0.30000,60.00000,8.448922e-006
1117.07001,333.60260, 7.709954e-003,0.30000,60.00000,8.453976e-006
1118.07001,333.40113, 7.722973e-003,0.29999,60.00000,8.458983e-006
1119.07001,333.19866, 7.735928e-003,0.30000,60.00000,8.463917e-006
1120.07001,332.99562, 7.748583e-003,0.29996,60.00000,8.468603e-006
1121.07001,332.79343, 7.761736e-003,0.29993,60.00000,8.473750e-006
1122.07001,332.59335, 7.775580e-003,0.30000,60.00000,8.479618e-006
1123.07001,332.39483, 7.788866e-003,0.29997,60.00000,8.484862e-006
1124.07001,332.19683, 7.801966e-003,0.29996,60.00000,8.489901e-006
1125.07001,331.99847, 7.815057e-003,0.30001,60.00000,8.494887e-006
1126.07001,331.79971, 7.827987e-003,0.30002,60.00000,8.499760e-006
1127.07001,331.60052, 7.841000e-003,0.30000,60.00000,8.504676e-006
1128.07001,331.40033, 7.853534e-003,0.29998,60.00000,8.509099e-006
1129.07001,331.19846, 7.866551e-003,0.30002,60.00000,8.513975e-006
1130.07001,330.99527, 7.878984e-003,0.30002,60.00000,8.518254e-006
1131.07001,330.79149, 7.892314e-003,0.29997,60.00000,8.523493e-006
1132.07001,330.58851, 7.905466e-003,0.29997,60.00000,8.528504e-006
1133.07001,330.38655, 7.918261e-003,0.30000,60.00000,8.533112e-006
1134.07001,330.18410, 7.930749e-003,0.29999,60.00000,8.537372e-006
1135.07001,329.98129, 7.943423e-003,0.29998,60.00000,8.541869e-006
1136.07001,329.77777, 7.955817e-003,0.30002,60.00000,8.546020e-006
1137.07001,329.57290, 7.968172e-003,0.30000,60.00000,8.550152e-006
1138.07001,329.36819, 7.981016e-003,0.30000,60.00000,8.554765e-006
1139.07001,329.16521, 7.993190e-003,0.30016,60.00000,8.558675e-006
1140.07001,328.96373, 8.006678e-003,0.30001,60.00000,8.563987e-006
1141.07001,328.76450, 8.019656e-003,0.30001,60.00000,8.568722e-006
1142.07001,328.56830, 8.033335e-003,0.30000,60.00000,8.574208e-006
1143.07001,328.37507, 8.046297e-003,0.29997,60.00000,8.578939e-006
1144.07001,328.18425, 8.059791e-003,0.29998,60.00000,8.584124e-006
1145.07001,327.99423, 8.072733e-003,0.29997,60.00000,8.588782e-006
1146.07001,327.80241, 8.085518e-003,0.30000,60.00000,8.593257e-006
1147.07001,327.60711, 8.098222e-003,0.29997,60.00000,8.597647e-006
1148.07001,327.40915, 8.111301e-003,0.30001,60.00000,8.602429e-006
1149.07001,327.21029, 8.124062e-003,0.30000,60.00000,8.606891e-006
1150.07001,327.01115, 8.137501e-003,0.29998,60.00000,8.611994e-006
1151.07001,326.81159, 8.150445e-003,0.30001,60.00000,8.616610e-006
1152.07001,326.61104, 8.163282e-003,0.30000,60.00000,8.621043e-006
1153.07001,326.40901, 8.175374e-003,0.30002,60.00000,8.624791e-006
1154.07001,326.20468, 8.187400e-003,0.29996,60.00000,8.628364e-006
1155.07001,325.99812, 8.199303e-003,0.30001,60.00000,8.631837e-006
1156.07001,325.78969, 8.211189e-003,0.29999,60.00000,8.635259e-006
1157.07001,325.58049, 8.223023e-003,0.29998,60.00000,8.638678e-006
1158.07001,325.37202, 8.235914e-003,0.29994,60.00000,8.643185e-006
1159.07001,325.16613, 8.249492e-003,0.29998,60.00000,8.648371e-006
1160.07001,324.96348, 8.262664e-003,0.30000,60.00000,8.653127e-006
1161.07001,324.76207, 8.275624e-003,0.30000,60.00000,8.657652e-006
1162.07001,324.55995, 8.289003e-003,0.29999,60.00000,8.662575e-006
1163.07001,324.35449, 8.302168e-003,0.29994,60.00000,8.667293e-006
1164.07001,324.14317, 8.315183e-003,0.30001,60.00000,8.671869e-006
1165.07001,323.92884, 8.328403e-003,0.29999,60.00000,8.676654e-006
1166.07001,323.71622, 8.341176e-003,0.29997,60.00000,8.680952e-006
1167.07001,323.50745, 8.353822e-003,0.30001,60.00000,8.685080e-006
1168.07001,323.30097, 8.366131e-003,0.29999,60.00000,8.688802e-006
1169.07001,323.09339, 8.378638e-003,0.29997,60.00000,8.692826e-006
1170.07001,322.88453, 8.391234e-003,0.29996,60.00000,8.696919e-006
1171.07001,322.67733, 8.404649e-003,0.30000,60.00000,8.701845e-006
1172.07001,322.47366, 8.418187e-003,0.29999,60.00000,8.706866e-006
1173.07001,322.27113, 8.431507e-003,0.29999,60.00000,8.711597e-006
1174.07001,322.06631, 8.444077e-003,0.30001,60.00000,8.715630e-006
1175.07001,321.85921, 8.456653e-003,0.29999,60.00000,8.719633e-006
1176.07001,321.65223, 8.469718e-003,0.29999,60.00000,8.724160e-006
1177.07001,321.44714, 8.482804e-003,0.30000,60.00000,8.728663e-006
1178.07001,321.24505, 8.496560e-003,0.29998,60.00000,8.733881e-006
1179.07001,321.04619, 8.509705e-003,0.30001,60.00000,8.738411e-006
1180.07001,320.84993, 8.523430e-003,0.30001,60.00000,8.743546e-006
1181.07001,320.65500, 8.536827e-003,0.29998,60.00000,8.748293e-006
1182.07001,320.45944, 8.549897e-003,0.30001,60.00000,8.752732e-006
1183.07001,320.26074, 8.562943e-003,0.30000,60.00000,8.757102e-006
1184.07001,320.05590, 8.574967e-003,0.30001,60.00000,8.760447e-006
1185.07001,319.84246, 8.586741e-003,0.30001,60.00000,8.763544e-006
1186.07001,319.61977, 8.598984e-003,0.30000,60.00000,8.767128e-006
1187.07001,319.39218, 8.611337e-003,0.29998,60.00000,8.770911e-006
1188.07001,319.16910, 8.624884e-003,0.29998,60.00000,8.775809e-006
1189.07001,318.95691, 8.638944e-003,0.30001,60.00000,8.781232e-006
1190.07001,318.75703, 8.653570e-003,0.30001,60.00000,8.787202e-006
1191.07001,318.56891, 8.668239e-003,0.29998,60.00000,8.793229e-006
1192.07001,318.39195, 8.683092e-003,0.30001,60.00000,8.799382e-006
1193.07001,318.22502, 8.698154e-003,0.30000,60.00000,8.805757e-006
1194.07001,318.06599, 8.713256e-003,0.29993,60.00000,8.812092e-006
1195.07001,317.91249, 8.728415e-003,0.29998,60.00000,8.818544e-006
1196.07001,317.76102, 8.743154e-003,0.29999,60.00000,8.824468e-006
1197.07001,317.60698, 8.756498e-003,0.30001,60.00000,8.828928e-006
1198.07001,317.44488, 8.769449e-003,0.30001,60.00000,8.833015e-006
1199.07001,317.26903, 8.781969e-003,0.30002,60.00000,8.836759e-006
1200.07001,317.07270, 8.793604e-003,0.30001,60.00000,8.839588e-006
1201.07001,316.84654, 8.804978e-003,0.29998,60.00000,8.842139e-006
1202.07001,316.57902, 8.814389e-003,0.29998,60.00000,8.842831e-006
1203.07001,316.27619, 8.824014e-003,0.29998,60.00000,8.843751e-006
1204.07001,315.98677, 8.837105e-003,0.29997,60.00000,8.848137e-006
1205.07001,315.73976, 8.850819e-003,0.30000,60.00000,8.853035e-006
1206.07001,315.52142, 8.865315e-003,0.29997,60.00000,8.858644e-006
1207.07001,315.32037, 8.879632e-003,0.29997,60.00000,8.864161e-006
1208.07001,315.13562, 8.895114e-003,0.29999,60.00000,8.870798e-006
1209.07001,314.96613, 8.910570e-003,0.29999,60.00000,8.877407e-006
1210.07001,314.80898, 8.925598e-003,0.29997,60.00000,8.883566e-006
1211.07001,314.66057, 8.940026e-003,0.29981,60.00000,8.888989e-006
1212.07001,314.51714, 8.954705e-003,0.29998,60.00000,8.894711e-006
1213.07001,314.37407, 8.968779e-003,0.29998,60.00000,8.899772e-006
1214.07001,314.22617, 8.982108e-003,0.30001,60.00000,8.904062e-006
1215.07001,314.06827, 8.994438e-003,0.30001,60.00000,8.907474e-006
1216.07001,313.89530, 9.007225e-003,0.29997,60.00000,8.911320e-006
1217.07001,313.70202, 9.018692e-003,0.29998,60.00000,8.913877e-006
1218.07001,313.47894, 9.029889e-003,0.29998,60.00000,8.916154e-006
1219.07001,313.20871, 9.039702e-003,0.30001,60.00000,8.917073e-006
1220.07001,312.86936, 9.048726e-003,0.29999,60.00000,8.917310e-006
1221.07001,312.52283, 9.061214e-003,0.30001,60.00000,8.921099e-006
1222.07001,312.24917, 9.075231e-003,0.29999,60.00000,8.925998e-006
1223.07001,312.00957, 9.088937e-003,0.29999,60.00000,8.930723e-006
1224.07001,311.79118, 9.103850e-003,0.30002,60.00000,8.936709e-006
1225.07001,311.59573, 9.119384e-003,0.29998,60.00000,8.943261e-006
1226.07001,311.42151, 9.135761e-003,0.30002,60.00000,8.950563e-006
1227.07001,311.26392, 9.151857e-003,0.29997,60.00000,8.957558e-006
1228.07001,311.11836, 9.167786e-003,0.29996,60.00000,8.964426e-006
1229.07001,310.98065, 9.183825e-003,0.29983,60.00000,8.971250e-006
1230.07001,310.84699, 9.199012e-003,0.29999,60.00000,8.977251e-006
1231.07001,310.71284, 9.214222e-003,0.30000,60.00000,8.983184e-006
1232.07001,310.57368, 9.228817e-003,0.29999,60.00000,8.988611e-006
1233.07001,310.42514, 9.242551e-003,0.29999,60.00000,8.993273e-006
1234.07001,310.26424, 9.255726e-003,0.29999,60.00000,8.997377e-006
1235.07001,310.08777, 9.268294e-003,0.29998,60.00000,9.000855e-006
1236.07001,309.88987, 9.279976e-003,0.29997,60.00000,9.003485e-006
1237.07001,309.65788, 9.290250e-003,0.29999,60.00000,9.004686e-006
1238.07001,309.35676, 9.297876e-003,0.30000,60.00000,9.003327e-006
1239.07001,308.92033, 9.305117e-003,0.30002,60.00000,9.001952e-006
1240.07001,308.56707, 9.320295e-003,0.29996,60.00000,9.008147e-006
1241.07001,308.32824, 9.336227e-003,0.30001,60.00000,9.014810e-006
1242.07001,308.13122, 9.352096e-003,0.29999,60.00000,9.021400e-006
1243.07001,307.95659, 9.367357e-003,0.30000,60.00000,9.027402e-006
1244.07001,307.79624, 9.382980e-003,0.29999,60.00000,9.033765e-006
1245.07001,307.64669, 9.399154e-003,0.30001,60.00000,9.040700e-006
1246.07001,307.50537, 9.414521e-003,0.30004,60.00000,9.046739e-006
1247.07001,307.36903, 9.429740e-003,0.30008,60.00000,9.052592e-006
1248.07001,307.23362, 9.444187e-003,0.30000,60.00000,9.057666e-006
1249.07001,307.09507, 9.458159e-003,0.30000,60.00000,9.062315e-006
1250.07001,306.94975, 9.471655e-003,0.30001,60.00000,9.066548e-006
1251.07001,306.79602, 9.485405e-003,0.29998,60.00000,9.071115e-006
1252.07001,306.63450, 9.499062e-003,0.30002,60.00000,9.075540e-006
1253.07001,306.46537, 9.512489e-003,0.30002,60.00000,9.079679e-006
1254.07001,306.28654, 9.525670e-003,0.30000,60.00000,9.083647e-006
1255.07001,306.09394, 9.537622e-003,0.29996,60.00000,9.086330e-006
1256.07001,305.87624, 9.547558e-003,0.30000,60.00000,9.087099e-006
1257.07001,305.60486, 9.555771e-003,0.29999,60.00000,9.086212e-006
1258.07001,305.18759, 9.559874e-003,0.30002,60.00000,9.081643e-006
1259.07001,304.72528, 9.572517e-003,0.30002,60.00000,9.085486e-006
1260.07001,304.46104, 9.588409e-003,0.30000,60.00000,9.091885e-006
1261.07001,304.26130, 9.604563e-003,0.30002,60.00000,9.098588e-006
1262.07001,304.09076, 9.621343e-003,0.29999,60.00000,9.105857e-006
1263.07001,303.93707, 9.636994e-003,0.30004,60.00000,9.112039e-006
1264.07001,303.79366, 9.652930e-003,0.29980,60.00000,9.118471e-006
1265.07001,303.65634, 9.668574e-003,0.29997,60.00000,9.124539e-006
1266.07001,303.52220, 9.684427e-003,0.29999,60.00000,9.130889e-006
1267.07001,303.38761, 9.698812e-003,0.30000,60.00000,9.135732e-006
1268.07001,303.24920, 9.713000e-003,0.30001,60.00000,9.140397e-006
1269.07001,303.10309, 9.726324e-003,0.30002,60.00000,9.144335e-006
1270.07001,302.94682, 9.739780e-003,0.30002,60.00000,9.148457e-006
1271.07001,302.77967, 9.753047e-003,0.29999,60.00000,9.152420e-006
1272.07001,302.60237, 9.766609e-003,0.30000,60.00000,9.156547e-006
1273.07001,302.41407, 9.779530e-003,0.29997,60.00000,9.160062e-006
1274.07001,302.21019, 9.792096e-003,0.30000,60.00000,9.163261e-006
1275.07001,301.98320, 9.804524e-003,0.29998,60.00000,9.166329e-006
1276.07001,301.71421, 9.815236e-003,0.29998,60.00000,9.167724e-006
1277.07001,301.35456, 9.824948e-003,0.29998,60.00000,9.168301e-006
1278.07001,300.94392, 9.838735e-003,0.29999,60.00000,9.173035e-006
1279.07001,300.66133, 9.855424e-003,0.30001,60.00000,9.180040e-006
1280.07001,300.44464, 9.871664e-003,0.30000,60.00000,9.186562e-006
1281.07001,300.25545, 9.888056e-003,0.29991,60.00000,9.193262e-006
1282.07001,300.08220, 9.904088e-003,0.29999,60.00000,9.199631e-006
1283.07001,299.92001, 9.920477e-003,0.30002,60.00000,9.206323e-006
1284.07001,299.76522, 9.936412e-003,0.30000,60.00000,9.212514e-006
1285.07001,299.61460, 9.952300e-003,0.29999,60.00000,9.218698e-006
1286.07001,299.46552, 9.967261e-003,0.30000,60.00000,9.223989e-006
1287.07001,299.31550, 9.982277e-003,0.30004,60.00000,9.229278e-006
1288.07001,299.16150, 9.996819e-003,0.29999,60.00000,9.234172e-006
1289.07001,299.00042, 1.001110e-002,0.29998,60.00000,9.238840e-006
1290.07001,298.83045, 1.002536e-002,0.30000,60.00000,9.243527e-006
1291.07001,298.65025, 1.003904e-002,0.29998,60.00000,9.247612e-006
1292.07001,298.45676, 1.005235e-002,0.29999,60.00000,9.251328e-006
1293.07001,298.24698, 1.006508e-002,0.29999,60.00000,9.254598e-006
1294.07001,298.02000, 1.007736e-002,0.29998,60.00000,9.257381e-006
1295.07001,297.77183, 1.008951e-002,0.30000,60.00000,9.260111e-006
1296.07001,297.50043, 1.010297e-002,0.30000,60.00000,9.263973e-006
1297.07001,297.22375, 1.011724e-002,0.30000,60.00000,9.268724e-006
1298.07001,296.97575, 1.013168e-002,0.30019,60.00000,9.273525e-006
1299.07001,296.75685, 1.014787e-002,0.29997,60.00000,9.279810e-006
1300.07001,296.55135, 1.016330e-002,0.30000,60.00000,9.285402e-006
1301.07001,296.35224, 1.017868e-002,0.30000,60.00000,9.290984e-006
1302.07001,296.15707, 1.019412e-002,0.30000,60.00000,9.296584e-006
1303.07001,295.96420, 1.020933e-002,0.29999,60.00000,9.302010e-006
1304.07001,295.77257, 1.022424e-002,0.29999,60.00000,9.307100e-006
1305.07001,295.58042, 1.023849e-002,0.29997,60.00000,9.311640e-006
1306.07001,295.38592, 1.025302e-002,0.29999,60.00000,9.316371e-006
1307.07001,295.18969, 1.026771e-002,0.30001,60.00000,9.321291e-006
1308.07001,294.99209, 1.028292e-002,0.29999,60.00000,9.326653e-006
1309.07001,294.79375, 1.029812e-002,0.30000,60.00000,9.332027e-006
1310.07001,294.59555, 1.031303e-002,0.29998,60.00000,9.337068e-006
1311.07001,294.39788, 1.032777e-002,0.29999,60.00000,9.341969e-006
1312.07001,294.20042, 1.034231e-002,0.29999,60.00000,9.346673e-006
1313.07001,294.00308, 1.035717e-002,0.29998,60.00000,9.351695e-006
1314.07001,293.80596, 1.037216e-002,0.29979,60.00000,9.356830e-006
1315.07001,293.60898, 1.038746e-002,0.29999,60.00000,9.362186e-006
1316.07001,293.41115, 1.040266e-002,0.29997,60.00000,9.367429e-006
1317.07001,293.21131, 1.041794e-002,0.30002,60.00000,9.372823e-006
1318.07001,293.00988, 1.043336e-002,0.30000,60.00000,9.378253e-006
1319.07001,292.80739, 1.044835e-002,0.29998,60.00000,9.383289e-006
1320.07001,292.60434, 1.046346e-002,0.29998,60.00000,9.388483e-006
1321.07001,292.40125, 1.047818e-002,0.29999,60.00000,9.393283e-006
1322.07001,292.19789, 1.049324e-002,0.30001,60.00000,9.398353e-006
1323.07001,291.99381, 1.050773e-002,0.30004,60.00000,9.402943e-006
1324.07001,291.78728, 1.052220e-002,0.29997,60.00000,9.407474e-006
1325.07001,291.57814, 1.053723e-002,0.29998,60.00000,9.412524e-006
1326.07001,291.36838, 1.055195e-002,0.29996,60.00000,9.417275e-006
1327.07001,291.15904, 1.056693e-002,0.30001,60.00000,9.422273e-006
1328.07001,290.95024, 1.058199e-002,0.29998,60.00000,9.427312e-006
1329.07001,290.74257, 1.059661e-002,0.30002,60.00000,9.431957e-006
1330.07001,290.53663, 1.061250e-002,0.29998,60.00000,9.437739e-006
1331.07001,290.33102, 1.062859e-002,0.29999,60.00000,9.443631e-006
1332.07001,290.12459, 1.064461e-002,0.30000,60.00000,9.449502e-006
1333.07001,289.91795, 1.066048e-002,0.29999,60.00000,9.455195e-006
1334.07001,289.71037, 1.067631e-002,0.29998,60.00000,9.460866e-006
1335.07001,289.50293, 1.069272e-002,0.30000,60.00000,9.467126e-006
1336.07001,289.29930, 1.070920e-002,0.30002,60.00000,9.473361e-006
1337.07001,289.09838, 1.072593e-002,0.29998,60.00000,9.479720e-006
1338.07001,288.89839, 1.074252e-002,0.30000,60.00000,9.486046e-006
1339.07001,288.69967, 1.075905e-002,0.30003,60.00000,9.492301e-006
1340.07001,288.50162, 1.077530e-002,0.29998,60.00000,9.498233e-006
1341.07001,288.30409, 1.079147e-002,0.29999,60.00000,9.504178e-006
1342.07001,288.10702, 1.080757e-002,0.29998,60.00000,9.509958e-006
1343.07001,287.91030, 1.082375e-002,0.29972,60.00000,9.515863e-006
1344.07001,287.71399, 1.084032e-002,0.30001,60.00000,9.522112e-006
1345.07001,287.51796, 1.085712e-002,0.29999,60.00000,9.528489e-006
1346.07001,287.32181, 1.087385e-002,0.29999,60.00000,9.534837e-006
1347.07001,287.12564, 1.089088e-002,0.29997,60.00000,9.541436e-006
1348.07001,286.92963, 1.090763e-002,0.29998,60.00000,9.547760e-006
1349.07001,286.73239, 1.092445e-002,0.29999,60.00000,9.554145e-006
1350.07001,286.53274, 1.094092e-002,0.29999,60.00000,9.560184e-006
1351.07001,286.32861, 1.095676e-002,0.30000,60.00000,9.565651e-006
1352.07001,286.11700, 1.097256e-002,0.29999,60.00000,9.571148e-006
1353.07001,285.89627, 1.098778e-002,0.29998,60.00000,9.576067e-006
1354.07001,285.66571, 1.100314e-002,0.30001,60.00000,9.581194e-006
1355.07001,285.43282, 1.101951e-002,0.29999,60.00000,9.587161e-006
1356.07001,285.21273, 1.103663e-002,0.29999,60.00000,9.593803e-006
1357.07001,285.00853, 1.105361e-002,0.29985,60.00000,9.600117e-006
1358.07001,284.81042, 1.107017e-002,0.29998,60.00000,9.606178e-006
1359.07001,284.61121, 1.108682e-002,0.29998,60.00000,9.612265e-006
1360.07001,284.40987, 1.110320e-002,0.30001,60.00000,9.618196e-006
1361.07001,284.20609, 1.111994e-002,0.29998,60.00000,9.624417e-006
1362.07001,284.00398, 1.113746e-002,0.29999,60.00000,9.631243e-006
1363.07001,283.80608, 1.115451e-002,0.29997,60.00000,9.637659e-006
1364.07001,283.61010, 1.117114e-002,0.30000,60.00000,9.643748e-006
1365.07001,283.41551, 1.118841e-002,0.29999,60.00000,9.650343e-006
1366.07001,283.22302, 1.120591e-002,0.30002,60.00000,9.657162e-006
1367.07001,283.03224, 1.122274e-002,0.30000,60.00000,9.663319e-006
1368.07001,282.84206, 1.124013e-002,0.29998,60.00000,9.669999e-006
1369.07001,282.65204, 1.125697e-002,0.29999,60.00000,9.676170e-006
1370.07001,282.46293, 1.127433e-002,0.29999,60.00000,9.682800e-006
1371.07001,282.27499, 1.129202e-002,0.29997,60.00000,9.689700e-006
1372.07001,282.08765, 1.130996e-002,0.30000,60.00000,9.696810e-006
1373.07001,281.90013, 1.132856e-002,0.29996,60.00000,9.704420e-006
1374.07001,281.71272, 1.134628e-002,0.30000,60.00000,9.711370e-006
1375.07001,281.52737, 1.136509e-002,0.29999,60.00000,9.719195e-006
1376.07001,281.34542, 1.138354e-002,0.30001,60.00000,9.726666e-006
1377.07001,281.16541, 1.140191e-002,0.30000,60.00000,9.734079e-006
1378.07001,280.98660, 1.142069e-002,0.30001,60.00000,9.741803e-006
1379.07001,280.80909, 1.143928e-002,0.29998,60.00000,9.749378e-006
1380.07001,280.63286, 1.145803e-002,0.29997,60.00000,9.757072e-006
1381.07001,280.45746, 1.147635e-002,0.29999,60.00000,9.764364e-006
1382.07001,280.28269, 1.149498e-002,0.30002,60.00000,9.771958e-006
1383.07001,280.10886, 1.151366e-002,0.30001,60.00000,9.779533e-006
1384.07001,279.93617, 1.153222e-002,0.30001,60.00000,9.787016e-006
1385.07001,279.76512, 1.155212e-002,0.29999,60.00000,9.795614e-006
1386.07001,279.59467, 1.157148e-002,0.29999,60.00000,9.803717e-006
1387.07001,279.42351, 1.159124e-002,0.29997,60.00000,9.812168e-006
1388.07001,279.25216, 1.161050e-002,0.30000,60.00000,9.820246e-006
1389.07001,279.08129, 1.162976e-002,0.30002,60.00000,9.828261e-006
1390.07001,278.91063, 1.164919e-002,0.30000,60.00000,9.836376e-006
1391.07001,278.73973, 1.166848e-002,0.29996,60.00000,9.844319e-006
1392.07001,278.56784, 1.168811e-002,0.29999,60.00000,9.852609e-006
1393.07001,278.39390, 1.170763e-002,0.30001,60.00000,9.860804e-006
1394.07001,278.21810, 1.172680e-002,0.29996,60.00000,9.868650e-006
1395.07001,278.04123, 1.174653e-002,0.30000,60.00000,9.876977e-006
1396.07001,277.86400, 1.176628e-002,0.30011,60.00000,9.885336e-006
1397.07001,277.68676, 1.178737e-002,0.29999,60.00000,9.894782e-006
1398.07001,277.50737, 1.180774e-002,0.29998,60.00000,9.903496e-006
1399.07001,277.32097, 1.182894e-002,0.29999,60.00000,9.912969e-006

