#EXPORTTYPE:       ,DATA ALL                        
#FILE:             ,李院长 MgO-C C9-骨 C9-基 1400.ngb-dl9
#FORMAT:           ,NETZSCH5                        
#FTYPE:            ,ANSI                            
#IDENTITY:         ,C9-骨                            
#DECIMAL:          ,POINT                           
#SEPARATOR:        ,COMMA                           
#MTYPE:            ,DIL                             
#INSTRUMENT:       ,NETZSCH DIL 402SU               
#PROJECT:          ,123                             
#DATE/TIME:        ,2025/6/4 16:10:34 (UTC+8)       
#CORR. FILE:       ,石墨炉 1400度-1.ngb-cl9             
#TEMPCAL:          ,TCALZERO.TMX                    
#LABORATORY:       ,wust                            
#OPERATOR:         ,                                
#REMARK:           ,                                
#SAMPLE:           ,镁碳                              
#SAMPLE LENGTH /mm:,25.64                           
#MATERIAL:         ,镁碳                              
#MEASMODE:         ,Standard Expansion              
#M.RANGE /μm:      ,50000                           
#CORR. CODE:       ,080                             
#RANGE:            ,25°C/5.0(K/min)/1403°C          
#SEGMENT:          ,S1/2                            
#SEG. 1:           ,25°C/5.0(K/min)/1403°C          
#Tref:             ,30.0°C                          

##Temp./°C,Time/min,dL/Lo,Force/N,Gas Flow(protective)/(ml/min),m. CTE(1)/(1/K)
  50.00000,  4.64564,2.900019e-004,0.29999,60.00000,1.196674e-005
  51.00000,  4.81874,2.985383e-004,0.30000,60.00000,1.180317e-005
  52.00000,  4.98442,3.053045e-004,0.30002,60.00000,1.156802e-005
  53.00000,  5.14655,3.108916e-004,0.29999,60.00000,1.130765e-005
  54.00000,  5.30879,3.161147e-004,0.30003,60.00000,1.105151e-005
  55.00000,  5.47464,3.216284e-004,0.29999,60.00000,1.082728e-005
  56.00000,  5.64792,3.273738e-004,0.29999,60.00000,1.062856e-005
  57.00000,  5.83217,3.326843e-004,0.30000,60.00000,1.043178e-005
  58.00000,  6.03260,3.395248e-004,0.29994,60.00000,1.030415e-005
  59.00000,  6.25424,3.477444e-004,0.30009,60.00000,1.023298e-005
  60.00000,  6.49889,3.598513e-004,0.29998,60.00000,1.029928e-005
  61.00000,  6.75886,3.733519e-004,0.30002,60.00000,1.040402e-005
  62.00000,  7.01386,3.862515e-004,0.30001,60.00000,1.048508e-005
  63.00000,  7.25107,3.984464e-004,0.30001,60.00000,1.053845e-005
  64.00000,  7.46891,4.096221e-004,0.30003,60.00000,1.055647e-005
  65.00000,  7.66939,4.186173e-004,0.30002,60.00000,1.051428e-005
  66.00000,  7.85555,4.276242e-004,0.30001,60.00000,1.047079e-005
  67.00000,  8.03033,4.329592e-004,0.29995,60.00000,1.033170e-005
  68.00000,  8.19788,4.399570e-004,0.30001,60.00000,1.024127e-005
  69.00000,  8.36132,4.447394e-004,0.29998,60.00000,1.010058e-005
  70.00000,  8.52413,4.496242e-004,0.29998,60.00000,9.968573e-006
  71.00000,  8.68946,4.538675e-004,0.30000,60.00000,9.827080e-006
  72.00000,  8.86115,4.588552e-004,0.30000,60.00000,9.712097e-006
  73.00000,  9.04349,4.646135e-004,0.30003,60.00000,9.619060e-006
  74.00000,  9.24096,4.722563e-004,0.29997,60.00000,9.574395e-006
  75.00000,  9.45794,4.806485e-004,0.30000,60.00000,9.549383e-006
  76.00000,  9.69478,4.922579e-004,0.29999,60.00000,9.595271e-006
  77.00000,  9.94260,5.046795e-004,0.30000,60.00000,9.657406e-006
  78.00000, 10.18614,5.175689e-004,0.29997,60.00000,9.725110e-006
  79.00000, 10.41613,5.296709e-004,0.30002,60.00000,9.774104e-006
  80.00000, 10.63044,5.409027e-004,0.30000,60.00000,9.803332e-006
  81.00000, 10.83040,5.502217e-004,0.30002,60.00000,9.794491e-006
  82.00000, 11.01891,5.580916e-004,0.30000,60.00000,9.757504e-006
  83.00000, 11.19767,5.656285e-004,0.29997,60.00000,9.716169e-006
  84.00000, 11.36924,5.718906e-004,0.30003,60.00000,9.650063e-006
  85.00000, 11.53675,5.770953e-004,0.30001,60.00000,9.568490e-006
  86.00000, 11.70419,5.825600e-004,0.29999,60.00000,9.493999e-006
  87.00000, 11.87488,5.883819e-004,0.29998,60.00000,9.429149e-006
  88.00000, 12.05264,5.946203e-004,0.30000,60.00000,9.374019e-006
  89.00000, 12.24117,6.015335e-004,0.29999,60.00000,9.331190e-006
  90.00000, 12.44477,6.097797e-004,0.30001,60.00000,9.313907e-006
  91.00000, 12.66636,6.204955e-004,0.29999,60.00000,9.338322e-006
  92.00000, 12.90325,6.318992e-004,0.29998,60.00000,9.371071e-006
  93.00000, 13.14559,6.444938e-004,0.30000,60.00000,9.422200e-006
  94.00000, 13.38261,6.565480e-004,0.29998,60.00000,9.465255e-006
  95.00000, 13.60846,6.688249e-004,0.30006,60.00000,9.509631e-006
  96.00000, 13.82116,6.789938e-004,0.30002,60.00000,9.519363e-006
  97.00000, 14.02163,6.873880e-004,0.30001,60.00000,9.502208e-006
  98.00000, 14.21210,6.955338e-004,0.30000,60.00000,9.481766e-006
  99.00000, 14.39454,7.023957e-004,0.30000,60.00000,9.443633e-006
 100.00000, 14.57150,7.091887e-004,0.30000,60.00000,9.405981e-006
 101.00000, 14.74513,7.149289e-004,0.30002,60.00000,9.354622e-006
 102.00000, 14.91860,7.211204e-004,0.30001,60.00000,9.308950e-006
 103.00000, 15.09485,7.271525e-004,0.29998,60.00000,9.262980e-006
 104.00000, 15.27729,7.332890e-004,0.30002,60.00000,9.221436e-006
 105.00000, 15.46937,7.418556e-004,0.29999,60.00000,9.212258e-006
 106.00000, 15.67433,7.513670e-004,0.30003,60.00000,9.216649e-006
 107.00000, 15.89357,7.619981e-004,0.29999,60.00000,9.235541e-006
 108.00000, 16.12355,7.742182e-004,0.29997,60.00000,9.274278e-006
 109.00000, 16.35700,7.871226e-004,0.30000,60.00000,9.320746e-006
 110.00000, 16.58786,7.989404e-004,0.30004,60.00000,9.352148e-006
 111.00000, 16.81205,8.108559e-004,0.30000,60.00000,9.383715e-006
 112.00000, 17.02829,8.219226e-004,0.30000,60.00000,9.403841e-006
 113.00000, 17.23686,8.312371e-004,0.29999,60.00000,9.402610e-006
 114.00000, 17.43861,8.406029e-004,0.29999,60.00000,9.402820e-006
 115.00000, 17.63464,8.483973e-004,0.30001,60.00000,9.383895e-006
 116.00000, 17.82614,8.572127e-004,0.29997,60.00000,9.377153e-006
 117.00000, 18.01486,8.650354e-004,0.29999,60.00000,9.359064e-006
 118.00000, 18.20235,8.732711e-004,0.30000,60.00000,9.346186e-006
 119.00000, 18.38975,8.816203e-004,0.29999,60.00000,9.334931e-006
 120.00000, 18.57839,8.898352e-004,0.30003,60.00000,9.322001e-006
 121.00000, 18.76933,8.989913e-004,0.30002,60.00000,9.320024e-006
 122.00000, 18.96369,9.072470e-004,0.29999,60.00000,9.308503e-006
 123.00000, 19.16281,9.176141e-004,0.30000,60.00000,9.319944e-006
 124.00000, 19.36770,9.280232e-004,0.29998,60.00000,9.331520e-006
 125.00000, 19.57768,9.387460e-004,0.30002,60.00000,9.346484e-006
 126.00000, 19.79232,9.503289e-004,0.29987,60.00000,9.368923e-006
 127.00000, 20.01135,9.619953e-004,0.29997,60.00000,9.393555e-006
 128.00000, 20.23220,9.730687e-004,0.30001,60.00000,9.410411e-006
 129.00000, 20.45337,9.857058e-004,0.30000,60.00000,9.443052e-006
 130.00000, 20.67438,9.968990e-004,0.30002,60.00000,9.461374e-006
 131.00000, 20.89373,1.007375e-003,0.30002,60.00000,9.471027e-006
 132.00000, 21.11025,1.017043e-003,0.29996,60.00000,9.473077e-006
 133.00000, 21.32364,1.026031e-003,0.29998,60.00000,9.468901e-006
 134.00000, 21.53341,1.033495e-003,0.29999,60.00000,9.448737e-006
 135.00000, 21.73965,1.042737e-003,0.30002,60.00000,9.446829e-006
 136.00000, 21.94286,1.050822e-003,0.29999,60.00000,9.433917e-006
 137.00000, 22.14370,1.059268e-003,0.30000,60.00000,9.425413e-006
 138.00000, 22.34270,1.067395e-003,0.30002,60.00000,9.412750e-006
 139.00000, 22.54009,1.076364e-003,0.30003,60.00000,9.408650e-006
 140.00000, 22.73694,1.085127e-003,0.30002,60.00000,9.402601e-006
 141.00000, 22.93340,1.093536e-003,0.30000,60.00000,9.393527e-006
 142.00000, 23.13038,1.103061e-003,0.29998,60.00000,9.394785e-006
 143.00000, 23.32879,1.113001e-003,0.29998,60.00000,9.399871e-006
 144.00000, 23.52876,1.121957e-003,0.30002,60.00000,9.395911e-006
 145.00000, 23.73073,1.132570e-003,0.29999,60.00000,9.406945e-006
 146.00000, 23.93480,1.143400e-003,0.30000,60.00000,9.418680e-006
 147.00000, 24.14142,1.154284e-003,0.30001,60.00000,9.430885e-006
 148.00000, 24.34971,1.165950e-003,0.30000,60.00000,9.449804e-006
 149.00000, 24.55982,1.176454e-003,0.29999,60.00000,9.458592e-006
 150.00000, 24.77191,1.188614e-003,0.30002,60.00000,9.481577e-006
 151.00000, 24.98446,1.200415e-003,0.30003,60.00000,9.500808e-006
 152.00000, 25.19686,1.211641e-003,0.30000,60.00000,9.515099e-006
 153.00000, 25.40859,1.222671e-003,0.29997,60.00000,9.527280e-006
 154.00000, 25.61957,1.233575e-003,0.30002,60.00000,9.538215e-006
 155.00000, 25.82924,1.244036e-003,0.30003,60.00000,9.546076e-006
 156.00000, 26.03678,1.255119e-003,0.29998,60.00000,9.557915e-006
 157.00000, 26.24230,1.265365e-003,0.30001,60.00000,9.563444e-006
 158.00000, 26.44616,1.275665e-003,0.29997,60.00000,9.569166e-006
 159.00000, 26.64847,1.285620e-003,0.30000,60.00000,9.572070e-006
 160.00000, 26.84918,1.295220e-003,0.30000,60.00000,9.572345e-006
 161.00000, 27.04827,1.304632e-003,0.30002,60.00000,9.571154e-006
 162.00000, 27.24638,1.314500e-003,0.30001,60.00000,9.573521e-006
 163.00000, 27.44389,1.324065e-003,0.30003,60.00000,9.573197e-006
 164.00000, 27.64100,1.333978e-003,0.30001,60.00000,9.576134e-006
 165.00000, 27.83808,1.344230e-003,0.29997,60.00000,9.580553e-006
 166.00000, 28.03514,1.353721e-003,0.29999,60.00000,9.579952e-006
 167.00000, 28.23241,1.364893e-003,0.30002,60.00000,9.591990e-006
 168.00000, 28.43028,1.375720e-003,0.29999,60.00000,9.600695e-006
 169.00000, 28.62905,1.385699e-003,0.29999,60.00000,9.603079e-006
 170.00000, 28.82815,1.396461e-003,0.29998,60.00000,9.611624e-006
 171.00000, 29.02767,1.407459e-003,0.29999,60.00000,9.621459e-006
 172.00000, 29.22746,1.418412e-003,0.29998,60.00000,9.631169e-006
 173.00000, 29.42772,1.429257e-003,0.29998,60.00000,9.639016e-006
 174.00000, 29.62843,1.439774e-003,0.29999,60.00000,9.645511e-006
 175.00000, 29.82890,1.450729e-003,0.29996,60.00000,9.654845e-006
 176.00000, 30.02883,1.461398e-003,0.30002,60.00000,9.661438e-006
 177.00000, 30.22849,1.471845e-003,0.30003,60.00000,9.666654e-006
 178.00000, 30.42776,1.482816e-003,0.29997,60.00000,9.675858e-006
 179.00000, 30.62671,1.493432e-003,0.30000,60.00000,9.681795e-006
 180.00000, 30.82554,1.503389e-003,0.30002,60.00000,9.683869e-006
 181.00000, 31.02440,1.514104e-003,0.30000,60.00000,9.690498e-006
 182.00000, 31.22320,1.524385e-003,0.30000,60.00000,9.694399e-006
 183.00000, 31.42199,1.535263e-003,0.30001,60.00000,9.702391e-006
 184.00000, 31.62106,1.545775e-003,0.30006,60.00000,9.707464e-006
 185.00000, 31.82053,1.557009e-003,0.29999,60.00000,9.717440e-006
 186.00000, 32.02005,1.568207e-003,0.30001,60.00000,9.727032e-006
 187.00000, 32.21958,1.579429e-003,0.30001,60.00000,9.736297e-006
 188.00000, 32.41916,1.590345e-003,0.30003,60.00000,9.743657e-006
 189.00000, 32.61928,1.601699e-003,0.30002,60.00000,9.753929e-006
 190.00000, 32.81964,1.612953e-003,0.29997,60.00000,9.763187e-006
 191.00000, 33.01967,1.624646e-003,0.30001,60.00000,9.775351e-006
 192.00000, 33.21986,1.635887e-003,0.30002,60.00000,9.784505e-006
 193.00000, 33.42014,1.647228e-003,0.30001,60.00000,9.793907e-006
 194.00000, 33.62067,1.658470e-003,0.30004,60.00000,9.802636e-006
 195.00000, 33.82080,1.669950e-003,0.30006,60.00000,9.813036e-006
 196.00000, 34.02054,1.680923e-003,0.30001,60.00000,9.819814e-006
 197.00000, 34.22005,1.691689e-003,0.30002,60.00000,9.825764e-006
 198.00000, 34.41944,1.702771e-003,0.30000,60.00000,9.833236e-006
 199.00000, 34.61905,1.713574e-003,0.30003,60.00000,9.838646e-006
 200.00000, 34.81877,1.724259e-003,0.30001,60.00000,9.843748e-006
 201.00000, 35.01843,1.733906e-003,0.29998,60.00000,9.842638e-006
 202.00000, 35.21780,1.745182e-003,0.30000,60.00000,9.850977e-006
 203.00000, 35.41688,1.756209e-003,0.29998,60.00000,9.857542e-006
 204.00000, 35.61552,1.766797e-003,0.30002,60.00000,9.861679e-006
 205.00000, 35.81395,1.777144e-003,0.30002,60.00000,9.865185e-006
 206.00000, 36.01288,1.788597e-003,0.30001,60.00000,9.873508e-006
 207.00000, 36.21205,1.799191e-003,0.29998,60.00000,9.877578e-006
 208.00000, 36.41121,1.810284e-003,0.30000,60.00000,9.884644e-006
 209.00000, 36.61045,1.820256e-003,0.30000,60.00000,9.885263e-006
 210.00000, 36.81024,1.831613e-003,0.30001,60.00000,9.893358e-006
 211.00000, 37.01097,1.841965e-003,0.30005,60.00000,9.895626e-006
 212.00000, 37.21204,1.852738e-003,0.30003,60.00000,9.900585e-006
 213.00000, 37.41269,1.862870e-003,0.30004,60.00000,9.902080e-006
 214.00000, 37.61322,1.873275e-003,0.30000,60.00000,9.904605e-006
 215.00000, 37.81353,1.883823e-003,0.30002,60.00000,9.908114e-006
 216.00000, 38.01380,1.894320e-003,0.29998,60.00000,9.911087e-006
 217.00000, 38.21426,1.904677e-003,0.30000,60.00000,9.913679e-006
 218.00000, 38.41453,1.915161e-003,0.30001,60.00000,9.916602e-006
 219.00000, 38.61487,1.925602e-003,0.30007,60.00000,9.919325e-006
 220.00000, 38.81529,1.936111e-003,0.30001,60.00000,9.922620e-006
 221.00000, 39.01543,1.946242e-003,0.30002,60.00000,9.923634e-006
 222.00000, 39.21550,1.956218e-003,0.30000,60.00000,9.923821e-006
 223.00000, 39.41548,1.968650e-003,0.30001,60.00000,9.936978e-006
 224.00000, 39.61543,1.979106e-003,0.29999,60.00000,9.939669e-006
 225.00000, 39.81585,1.989757e-003,0.30000,60.00000,9.943311e-006
 226.00000, 40.01636,2.000534e-003,0.29998,60.00000,9.947736e-006
 227.00000, 40.21694,2.011567e-003,0.29996,60.00000,9.952969e-006
 228.00000, 40.41810,2.023015e-003,0.30001,60.00000,9.960289e-006
 229.00000, 40.61951,2.033814e-003,0.29999,60.00000,9.964659e-006
 230.00000, 40.82084,2.045126e-003,0.30005,60.00000,9.971737e-006
 231.00000, 41.02229,2.056044e-003,0.30000,60.00000,9.976084e-006
 232.00000, 41.22366,2.066781e-003,0.30003,60.00000,9.979865e-006
 233.00000, 41.42470,2.078235e-003,0.30000,60.00000,9.987367e-006
 234.00000, 41.62553,2.088795e-003,0.30001,60.00000,9.990173e-006
 235.00000, 41.82606,2.100090e-003,0.30003,60.00000,9.996476e-006
 236.00000, 42.02660,2.110274e-003,0.29998,60.00000,9.997205e-006
 237.00000, 42.22727,2.121669e-003,0.29999,60.00000,1.000421e-005
 238.00000, 42.42750,2.132012e-003,0.30000,60.00000,1.000571e-005
 239.00000, 42.62712,2.142840e-003,0.30001,60.00000,1.000958e-005
 240.00000, 42.82678,2.153272e-003,0.30008,60.00000,1.001149e-005
 241.00000, 43.02645,2.164074e-003,0.30000,60.00000,1.001541e-005
 242.00000, 43.22612,2.175394e-003,0.30000,60.00000,1.002183e-005
 243.00000, 43.42590,2.186562e-003,0.30004,60.00000,1.002708e-005
 244.00000, 43.62566,2.197767e-003,0.30008,60.00000,1.003254e-005
 245.00000, 43.82549,2.208268e-003,0.29997,60.00000,1.003472e-005
 246.00000, 44.02570,2.219812e-003,0.30000,60.00000,1.004140e-005
 247.00000, 44.22634,2.231583e-003,0.30003,60.00000,1.004970e-005
 248.00000, 44.42737,2.242552e-003,0.29998,60.00000,1.005382e-005
 249.00000, 44.62834,2.254010e-003,0.30002,60.00000,1.006037e-005
 250.00000, 44.82930,2.264970e-003,0.30003,60.00000,1.006439e-005
 251.00000, 45.02991,2.275022e-003,0.30003,60.00000,1.006424e-005
 252.00000, 45.23001,2.286453e-003,0.30000,60.00000,1.007023e-005
 253.00000, 45.43000,2.296402e-003,0.29997,60.00000,1.006984e-005
 254.00000, 45.63004,2.307357e-003,0.29999,60.00000,1.007385e-005
 255.00000, 45.82991,2.318422e-003,0.29995,60.00000,1.007846e-005
 256.00000, 46.02959,2.328897e-003,0.29999,60.00000,1.008008e-005
 257.00000, 46.22906,2.339601e-003,0.30004,60.00000,1.008282e-005
 258.00000, 46.42805,2.350259e-003,0.30002,60.00000,1.008534e-005
 259.00000, 46.62650,2.360514e-003,0.30019,60.00000,1.008598e-005
 260.00000, 46.82443,2.372087e-003,0.29999,60.00000,1.009240e-005
 261.00000, 47.02212,2.382690e-003,0.30000,60.00000,1.009444e-005
 262.00000, 47.21976,2.394267e-003,0.30003,60.00000,1.010109e-005
 263.00000, 47.41694,2.405396e-003,0.29999,60.00000,1.010557e-005
 264.00000, 47.61377,2.416430e-003,0.30002,60.00000,1.010924e-005
 265.00000, 47.81085,2.427285e-003,0.29998,60.00000,1.011281e-005
 266.00000, 48.00808,2.438647e-003,0.30001,60.00000,1.011794e-005
 267.00000, 48.20513,2.449721e-003,0.30006,60.00000,1.012206e-005
 268.00000, 48.40269,2.460648e-003,0.30002,60.00000,1.012524e-005
 269.00000, 48.60093,2.471716e-003,0.30003,60.00000,1.012912e-005
 270.00000, 48.79958,2.482729e-003,0.29999,60.00000,1.013299e-005
 271.00000, 48.99831,2.493836e-003,0.30003,60.00000,1.013705e-005
 272.00000, 49.19737,2.504674e-003,0.30002,60.00000,1.013991e-005
 273.00000, 49.39725,2.515780e-003,0.30002,60.00000,1.014395e-005
 274.00000, 49.59772,2.526824e-003,0.30003,60.00000,1.014745e-005
 275.00000, 49.79826,2.537382e-003,0.30002,60.00000,1.014931e-005
 276.00000, 49.99902,2.548198e-003,0.29997,60.00000,1.015213e-005
 277.00000, 50.19954,2.559103e-003,0.30000,60.00000,1.015503e-005
 278.00000, 50.39972,2.569901e-003,0.29997,60.00000,1.015755e-005
 279.00000, 50.59980,2.580799e-003,0.29999,60.00000,1.016047e-005
 280.00000, 50.79958,2.591959e-003,0.30000,60.00000,1.016451e-005
 281.00000, 50.99938,2.602729e-003,0.30001,60.00000,1.016700e-005
 282.00000, 51.19951,2.613747e-003,0.30001,60.00000,1.017028e-005
 283.00000, 51.39995,2.625120e-003,0.30001,60.00000,1.017477e-005
 284.00000, 51.60002,2.635973e-003,0.30000,60.00000,1.017791e-005
 285.00000, 51.80015,2.646958e-003,0.29999,60.00000,1.018081e-005
 286.00000, 52.00046,2.657985e-003,0.30000,60.00000,1.018432e-005
 287.00000, 52.20073,2.668841e-003,0.29998,60.00000,1.018681e-005
 288.00000, 52.40115,2.679596e-003,0.30006,60.00000,1.018905e-005
 289.00000, 52.60215,2.690517e-003,0.30002,60.00000,1.019184e-005
 290.00000, 52.80394,2.701429e-003,0.30002,60.00000,1.019467e-005
 291.00000, 53.00598,2.712209e-003,0.30001,60.00000,1.019694e-005
 292.00000, 53.20846,2.723163e-003,0.29999,60.00000,1.019991e-005
 293.00000, 53.41168,2.734024e-003,0.29998,60.00000,1.020244e-005
 294.00000, 53.61487,2.744085e-003,0.30002,60.00000,1.020183e-005
 295.00000, 53.81811,2.754782e-003,0.29998,60.00000,1.020371e-005
 296.00000, 54.02189,2.765302e-003,0.30005,60.00000,1.020484e-005
 297.00000, 54.22596,2.776991e-003,0.30000,60.00000,1.021038e-005
 298.00000, 54.43003,2.787979e-003,0.30000,60.00000,1.021334e-005
 299.00000, 54.63419,2.798901e-003,0.29998,60.00000,1.021579e-005
 300.00000, 54.83800,2.809598e-003,0.30000,60.00000,1.021763e-005
 301.00000, 55.04132,2.820358e-003,0.29998,60.00000,1.021963e-005
 302.00000, 55.24447,2.831210e-003,0.30001,60.00000,1.022203e-005
 303.00000, 55.44746,2.841726e-003,0.30001,60.00000,1.022315e-005
 304.00000, 55.65009,2.852049e-003,0.30001,60.00000,1.022340e-005
 305.00000, 55.85269,2.862532e-003,0.30002,60.00000,1.022439e-005
 306.00000, 56.05526,2.873083e-003,0.29999,60.00000,1.022556e-005
 307.00000, 56.25769,2.883201e-003,0.29999,60.00000,1.022514e-005
 308.00000, 56.46040,2.892929e-003,0.30000,60.00000,1.022337e-005
 309.00000, 56.66327,2.903072e-003,0.30003,60.00000,1.022305e-005
 310.00000, 56.86572,2.912717e-003,0.30001,60.00000,1.022093e-005
 311.00000, 57.06781,2.922708e-003,0.29998,60.00000,1.022009e-005
 312.00000, 57.26985,2.933381e-003,0.29999,60.00000,1.022163e-005
 313.00000, 57.47163,2.943276e-003,0.30001,60.00000,1.022059e-005
 314.00000, 57.67373,2.953565e-003,0.29999,60.00000,1.022096e-005
 315.00000, 57.87658,2.963770e-003,0.30001,60.00000,1.022083e-005
 316.00000, 58.08016,2.974858e-003,0.29978,60.00000,1.022383e-005
 317.00000, 58.28427,2.985693e-003,0.29999,60.00000,1.022610e-005
 318.00000, 58.48886,2.996544e-003,0.29999,60.00000,1.022802e-005
 319.00000, 58.69432,3.007877e-003,0.30002,60.00000,1.023213e-005
 320.00000, 58.90046,3.019063e-003,0.30002,60.00000,1.023529e-005
 321.00000, 59.10731,3.030233e-003,0.30001,60.00000,1.023849e-005
 322.00000, 59.31498,3.041811e-003,0.30006,60.00000,1.024310e-005
 323.00000, 59.52283,3.053235e-003,0.30001,60.00000,1.024731e-005
 324.00000, 59.73033,3.064691e-003,0.30001,60.00000,1.025118e-005
 325.00000, 59.93690,3.075406e-003,0.29997,60.00000,1.025287e-005
 326.00000, 60.14243,3.086069e-003,0.30001,60.00000,1.025420e-005
 327.00000, 60.34707,3.097027e-003,0.30002,60.00000,1.025675e-005
 328.00000, 60.55065,3.107424e-003,0.29999,60.00000,1.025719e-005
 329.00000, 60.75323,3.117850e-003,0.30000,60.00000,1.025769e-005
 330.00000, 60.95519,3.127927e-003,0.30001,60.00000,1.025708e-005
 331.00000, 61.15694,3.138579e-003,0.29999,60.00000,1.025844e-005
 332.00000, 61.35909,3.148968e-003,0.30002,60.00000,1.025880e-005
 333.00000, 61.56175,3.159174e-003,0.30002,60.00000,1.025855e-005
 334.00000, 61.76503,3.169378e-003,0.29999,60.00000,1.025851e-005
 335.00000, 61.96917,3.179523e-003,0.29998,60.00000,1.025796e-005
 336.00000, 62.17446,3.189141e-003,0.29999,60.00000,1.025593e-005
 337.00000, 62.38029,3.199719e-003,0.30005,60.00000,1.025695e-005
 338.00000, 62.58590,3.209879e-003,0.30002,60.00000,1.025654e-005
 339.00000, 62.79120,3.220191e-003,0.30000,60.00000,1.025686e-005
 340.00000, 62.99578,3.230356e-003,0.30002,60.00000,1.025673e-005
 341.00000, 63.19918,3.241128e-003,0.29998,60.00000,1.025814e-005
 342.00000, 63.40124,3.250908e-003,0.30000,60.00000,1.025671e-005
 343.00000, 63.60203,3.260631e-003,0.30002,60.00000,1.025502e-005
 344.00000, 63.80178,3.270712e-003,0.30001,60.00000,1.025449e-005
 345.00000, 64.00116,3.280857e-003,0.29999,60.00000,1.025404e-005
 346.00000, 64.20066,3.291451e-003,0.30001,60.00000,1.025521e-005
 347.00000, 64.40050,3.301686e-003,0.30002,60.00000,1.025517e-005
 348.00000, 64.60106,3.311671e-003,0.29999,60.00000,1.025420e-005
 349.00000, 64.80283,3.321945e-003,0.29997,60.00000,1.025430e-005
 350.00000, 65.00567,3.332512e-003,0.30001,60.00000,1.025518e-005
 351.00000, 65.20956,3.343397e-003,0.30001,60.00000,1.025715e-005
 352.00000, 65.41411,3.353445e-003,0.29997,60.00000,1.025659e-005
 353.00000, 65.61924,3.363641e-003,0.30001,60.00000,1.025635e-005
 354.00000, 65.82497,3.374098e-003,0.30001,60.00000,1.025703e-005
 355.00000, 66.03062,3.383763e-003,0.30001,60.00000,1.025520e-005
 356.00000, 66.23533,3.394045e-003,0.30002,60.00000,1.025543e-005
 357.00000, 66.43884,3.403369e-003,0.30001,60.00000,1.025240e-005
 358.00000, 66.64115,3.413849e-003,0.29999,60.00000,1.025314e-005
 359.00000, 66.84276,3.423297e-003,0.29995,60.00000,1.025055e-005
 360.00000, 67.04418,3.434017e-003,0.29999,60.00000,1.025220e-005
 361.00000, 67.24568,3.444248e-003,0.30000,60.00000,1.025201e-005
 362.00000, 67.44771,3.454886e-003,0.30003,60.00000,1.025304e-005
 363.00000, 67.65065,3.465519e-003,0.30002,60.00000,1.025435e-005
 364.00000, 67.85493,3.476427e-003,0.30003,60.00000,1.025634e-005
 365.00000, 68.06023,3.487404e-003,0.29997,60.00000,1.025845e-005
 366.00000, 68.26618,3.498071e-003,0.29997,60.00000,1.025967e-005
 367.00000, 68.47282,3.509093e-003,0.30000,60.00000,1.026195e-005
 368.00000, 68.67916,3.520182e-003,0.30002,60.00000,1.026437e-005
 369.00000, 68.88500,3.531145e-003,0.30000,60.00000,1.026643e-005
 370.00000, 69.09015,3.541652e-003,0.30000,60.00000,1.026719e-005
 371.00000, 69.29426,3.552401e-003,0.30001,60.00000,1.026861e-005
 372.00000, 69.49786,3.562871e-003,0.30001,60.00000,1.026913e-005
 373.00000, 69.70154,3.573446e-003,0.30003,60.00000,1.026996e-005
 374.00000, 69.90542,3.583854e-003,0.29998,60.00000,1.027031e-005
 375.00000, 70.10908,3.594551e-003,0.30001,60.00000,1.027171e-005
 376.00000, 70.31258,3.604446e-003,0.30000,60.00000,1.027050e-005
 377.00000, 70.51630,3.615290e-003,0.30000,60.00000,1.027213e-005
 378.00000, 70.72034,3.625529e-003,0.30003,60.00000,1.027218e-005
 379.00000, 70.92453,3.636046e-003,0.30000,60.00000,1.027273e-005
 380.00000, 71.12915,3.646158e-003,0.29999,60.00000,1.027233e-005
 381.00000, 71.33413,3.656960e-003,0.29998,60.00000,1.027383e-005
 382.00000, 71.53879,3.666852e-003,0.30000,60.00000,1.027296e-005
 383.00000, 71.74308,3.677267e-003,0.30001,60.00000,1.027317e-005
 384.00000, 71.94713,3.687444e-003,0.29999,60.00000,1.027281e-005
 385.00000, 72.15150,3.698162e-003,0.29998,60.00000,1.027411e-005
 386.00000, 72.35616,3.708624e-003,0.29998,60.00000,1.027473e-005
 387.00000, 72.56075,3.718960e-003,0.30002,60.00000,1.027499e-005
 388.00000, 72.76495,3.729113e-003,0.30001,60.00000,1.027456e-005
 389.00000, 72.96893,3.739656e-003,0.29999,60.00000,1.027523e-005
 390.00000, 73.17292,3.749852e-003,0.29998,60.00000,1.027502e-005
 391.00000, 73.37672,3.760184e-003,0.30001,60.00000,1.027523e-005
 392.00000, 73.58057,3.770472e-003,0.29999,60.00000,1.027534e-005
 393.00000, 73.78428,3.781318e-003,0.30002,60.00000,1.027678e-005
 394.00000, 73.98751,3.791322e-003,0.29999,60.00000,1.027612e-005
 395.00000, 74.19031,3.801693e-003,0.30001,60.00000,1.027643e-005
 396.00000, 74.39319,3.812678e-003,0.30002,60.00000,1.027834e-005
 397.00000, 74.59710,3.823265e-003,0.29998,60.00000,1.027905e-005
 398.00000, 74.80184,3.833811e-003,0.29997,60.00000,1.027983e-005
 399.00000, 75.00735,3.844348e-003,0.29997,60.00000,1.028059e-005
 400.00000, 75.21370,3.854975e-003,0.30000,60.00000,1.028144e-005
 401.00000, 75.42089,3.865785e-003,0.29999,60.00000,1.028287e-005
 402.00000, 75.62902,3.876374e-003,0.30003,60.00000,1.028377e-005
 403.00000, 75.83756,3.886716e-003,0.30000,60.00000,1.028395e-005
 404.00000, 76.04634,3.896963e-003,0.30002,60.00000,1.028383e-005
 405.00000, 76.25522,3.907966e-003,0.30004,60.00000,1.028574e-005
 406.00000, 76.46335,3.918777e-003,0.30000,60.00000,1.028725e-005
 407.00000, 76.67004,3.929721e-003,0.30001,60.00000,1.028881e-005
 408.00000, 76.87584,3.940432e-003,0.30000,60.00000,1.028997e-005
 409.00000, 77.08076,3.951326e-003,0.30000,60.00000,1.029148e-005
 410.00000, 77.28445,3.961791e-003,0.30001,60.00000,1.029209e-005
 411.00000, 77.48736,3.972737e-003,0.30002,60.00000,1.029376e-005
 412.00000, 77.68989,3.983538e-003,0.29998,60.00000,1.029509e-005
 413.00000, 77.89247,3.994174e-003,0.30001,60.00000,1.029604e-005
 414.00000, 78.09597,4.005050e-003,0.30002,60.00000,1.029737e-005
 415.00000, 78.30052,4.016483e-003,0.29999,60.00000,1.030033e-005
 416.00000, 78.50571,4.027359e-003,0.30003,60.00000,1.030195e-005
 417.00000, 78.71151,4.038117e-003,0.30004,60.00000,1.030308e-005
 418.00000, 78.91774,4.048745e-003,0.30001,60.00000,1.030396e-005
 419.00000, 79.12384,4.059222e-003,0.30001,60.00000,1.030427e-005
 420.00000, 79.32930,4.069626e-003,0.30001,60.00000,1.030462e-005
 421.00000, 79.53356,4.079891e-003,0.29998,60.00000,1.030454e-005
 422.00000, 79.73679,4.090116e-003,0.29998,60.00000,1.030430e-005
 423.00000, 79.93913,4.100188e-003,0.29998,60.00000,1.030373e-005
 424.00000, 80.14058,4.110397e-003,0.30000,60.00000,1.030351e-005
 425.00000, 80.34126,4.120668e-003,0.30002,60.00000,1.030334e-005
 426.00000, 80.54165,4.130626e-003,0.30001,60.00000,1.030257e-005
 427.00000, 80.74207,4.141217e-003,0.29998,60.00000,1.030321e-005
 428.00000, 80.94260,4.151141e-003,0.30013,60.00000,1.030236e-005
 429.00000, 81.14385,4.161732e-003,0.29999,60.00000,1.030302e-005
 430.00000, 81.34578,4.172519e-003,0.29999,60.00000,1.030423e-005
 431.00000, 81.54843,4.183525e-003,0.29999,60.00000,1.030589e-005
 432.00000, 81.75175,4.193919e-003,0.30002,60.00000,1.030616e-005
 433.00000, 81.95602,4.204805e-003,0.30002,60.00000,1.030768e-005
 434.00000, 82.16064,4.215839e-003,0.30003,60.00000,1.030944e-005
 435.00000, 82.36500,4.226603e-003,0.30001,60.00000,1.031047e-005
 436.00000, 82.56921,4.237504e-003,0.30001,60.00000,1.031197e-005
 437.00000, 82.77323,4.248361e-003,0.30002,60.00000,1.031340e-005
 438.00000, 82.97681,4.259005e-003,0.30000,60.00000,1.031411e-005
 439.00000, 83.18008,4.269422e-003,0.30001,60.00000,1.031440e-005
 440.00000, 83.38331,4.280071e-003,0.30002,60.00000,1.031525e-005
 441.00000, 83.58586,4.290499e-003,0.30002,60.00000,1.031566e-005
 442.00000, 83.78819,4.301521e-003,0.30002,60.00000,1.031721e-005
 443.00000, 83.99080,4.312104e-003,0.29999,60.00000,1.031780e-005
 444.00000, 84.19350,4.323179e-003,0.30000,60.00000,1.031970e-005
 445.00000, 84.39691,4.333829e-003,0.30001,60.00000,1.032051e-005
 446.00000, 84.60101,4.344453e-003,0.29995,60.00000,1.032118e-005
 447.00000, 84.80506,4.355546e-003,0.30002,60.00000,1.032310e-005
 448.00000, 85.00934,4.366100e-003,0.30004,60.00000,1.032370e-005
 449.00000, 85.21380,4.376688e-003,0.29996,60.00000,1.032425e-005
 450.00000, 85.41812,4.387068e-003,0.29991,60.00000,1.032442e-005
 451.00000, 85.62268,4.398631e-003,0.29998,60.00000,1.032729e-005
 452.00000, 85.82796,4.409796e-003,0.29998,60.00000,1.032930e-005
 453.00000, 86.03335,4.420429e-003,0.30004,60.00000,1.033005e-005
 454.00000, 86.23808,4.431501e-003,0.29999,60.00000,1.033179e-005
 455.00000, 86.44236,4.442349e-003,0.30000,60.00000,1.033292e-005
 456.00000, 86.64621,4.453620e-003,0.30002,60.00000,1.033520e-005
 457.00000, 86.84983,4.464395e-003,0.29998,60.00000,1.033627e-005
 458.00000, 87.05314,4.475709e-003,0.30000,60.00000,1.033852e-005
 459.00000, 87.25616,4.486718e-003,0.29999,60.00000,1.034007e-005
 460.00000, 87.45935,4.497668e-003,0.30000,60.00000,1.034149e-005
 461.00000, 87.66295,4.508742e-003,0.29999,60.00000,1.034329e-005
 462.00000, 87.86709,4.519770e-003,0.30005,60.00000,1.034476e-005
 463.00000, 88.07168,4.530419e-003,0.30000,60.00000,1.034552e-005
 464.00000, 88.27678,4.541168e-003,0.30003,60.00000,1.034646e-005
 465.00000, 88.48222,4.552283e-003,0.30002,60.00000,1.034812e-005
 466.00000, 88.68769,4.563476e-003,0.29999,60.00000,1.035004e-005
 467.00000, 88.89338,4.574017e-003,0.29999,60.00000,1.035053e-005
 468.00000, 89.09931,4.584609e-003,0.30000,60.00000,1.035103e-005
 469.00000, 89.30495,4.595149e-003,0.29998,60.00000,1.035156e-005
 470.00000, 89.51008,4.605781e-003,0.30000,60.00000,1.035223e-005
 471.00000, 89.71504,4.616099e-003,0.29998,60.00000,1.035217e-005
 472.00000, 89.91980,4.627146e-003,0.30010,60.00000,1.035372e-005
 473.00000, 90.12414,4.638046e-003,0.30003,60.00000,1.035490e-005
 474.00000, 90.32813,4.648897e-003,0.30003,60.00000,1.035602e-005
 475.00000, 90.53241,4.659717e-003,0.30001,60.00000,1.035704e-005
 476.00000, 90.73731,4.670913e-003,0.30001,60.00000,1.035886e-005
 477.00000, 90.94277,4.681766e-003,0.29999,60.00000,1.036002e-005
 478.00000, 91.14874,4.693028e-003,0.30001,60.00000,1.036206e-005
 479.00000, 91.35493,4.703926e-003,0.30000,60.00000,1.036327e-005
 480.00000, 91.56147,4.714709e-003,0.30000,60.00000,1.036423e-005
 481.00000, 91.76815,4.725625e-003,0.30000,60.00000,1.036546e-005
 482.00000, 91.97446,4.736914e-003,0.30001,60.00000,1.036742e-005
 483.00000, 92.18004,4.747806e-003,0.30002,60.00000,1.036868e-005
 484.00000, 92.38450,4.758637e-003,0.30004,60.00000,1.036965e-005
 485.00000, 92.58819,4.769696e-003,0.30000,60.00000,1.037115e-005
 486.00000, 92.79144,4.780401e-003,0.29999,60.00000,1.037185e-005
 487.00000, 92.99496,4.791353e-003,0.30001,60.00000,1.037313e-005
 488.00000, 93.19917,4.802440e-003,0.30001,60.00000,1.037468e-005
 489.00000, 93.40350,4.813740e-003,0.30001,60.00000,1.037665e-005
 490.00000, 93.60875,4.824795e-003,0.30000,60.00000,1.037822e-005
 491.00000, 93.81425,4.836217e-003,0.29999,60.00000,1.038049e-005
 492.00000, 94.01892,4.847680e-003,0.30001,60.00000,1.038277e-005
 493.00000, 94.22358,4.858569e-003,0.30003,60.00000,1.038393e-005
 494.00000, 94.42763,4.870092e-003,0.30000,60.00000,1.038640e-005
 495.00000, 94.63021,4.881184e-003,0.30000,60.00000,1.038782e-005
 496.00000, 94.83178,4.892617e-003,0.30005,60.00000,1.039012e-005
 497.00000, 95.03305,4.903961e-003,0.30002,60.00000,1.039222e-005
 498.00000, 95.23390,4.915279e-003,0.30002,60.00000,1.039412e-005
 499.00000, 95.43440,4.926203e-003,0.30000,60.00000,1.039533e-005
 500.00000, 95.63518,4.937698e-003,0.29998,60.00000,1.039760e-005
 501.00000, 95.83652,4.948983e-003,0.30004,60.00000,1.039950e-005
 502.00000, 96.03856,4.960386e-003,0.30000,60.00000,1.040157e-005
 503.00000, 96.24157,4.971704e-003,0.29998,60.00000,1.040361e-005
 504.00000, 96.44582,4.982747e-003,0.29998,60.00000,1.040493e-005
 505.00000, 96.65072,4.993785e-003,0.30001,60.00000,1.040620e-005
 506.00000, 96.85582,5.004719e-003,0.30002,60.00000,1.040738e-005
 507.00000, 97.06056,5.016167e-003,0.30002,60.00000,1.040957e-005
 508.00000, 97.26477,5.026739e-003,0.30002,60.00000,1.040987e-005
 509.00000, 97.46804,5.037172e-003,0.30002,60.00000,1.041003e-005
 510.00000, 97.67045,5.047575e-003,0.30000,60.00000,1.040998e-005
 511.00000, 97.87269,5.058133e-003,0.29998,60.00000,1.041016e-005
 512.00000, 98.07507,5.068345e-003,0.30000,60.00000,1.040969e-005
 513.00000, 98.27779,5.078253e-003,0.30001,60.00000,1.040873e-005
 514.00000, 98.47990,5.089076e-003,0.30004,60.00000,1.040967e-005
 515.00000, 98.68110,5.099762e-003,0.30000,60.00000,1.041020e-005
 516.00000, 98.88254,5.110433e-003,0.30004,60.00000,1.041071e-005
 517.00000, 99.08460,5.121456e-003,0.29999,60.00000,1.041185e-005
 518.00000, 99.28672,5.131906e-003,0.30000,60.00000,1.041206e-005
 519.00000, 99.48878,5.142785e-003,0.30001,60.00000,1.041309e-005
 520.00000, 99.69114,5.153925e-003,0.29997,60.00000,1.041443e-005
 521.00000, 99.89378,5.164890e-003,0.30001,60.00000,1.041559e-005
 522.00000,100.09707,5.175782e-003,0.30000,60.00000,1.041674e-005
 523.00000,100.30111,5.186970e-003,0.29997,60.00000,1.041810e-005
 524.00000,100.50512,5.198324e-003,0.29999,60.00000,1.042003e-005
 525.00000,100.70937,5.208955e-003,0.30000,60.00000,1.042046e-005
 526.00000,100.91414,5.219771e-003,0.30004,60.00000,1.042130e-005
 527.00000,101.11960,5.230344e-003,0.30001,60.00000,1.042167e-005
 528.00000,101.32551,5.242008e-003,0.30000,60.00000,1.042406e-005
 529.00000,101.53051,5.252984e-003,0.29999,60.00000,1.042518e-005
 530.00000,101.73442,5.264284e-003,0.29999,60.00000,1.042687e-005
 531.00000,101.93744,5.275182e-003,0.30001,60.00000,1.042784e-005
 532.00000,102.13985,5.286578e-003,0.29999,60.00000,1.042977e-005
 533.00000,102.34206,5.297507e-003,0.30002,60.00000,1.043082e-005
 534.00000,102.54393,5.308324e-003,0.29999,60.00000,1.043159e-005
 535.00000,102.74568,5.319359e-003,0.30000,60.00000,1.043272e-005
 536.00000,102.94750,5.330442e-003,0.30001,60.00000,1.043398e-005
 537.00000,103.14925,5.341510e-003,0.30006,60.00000,1.043530e-005
 538.00000,103.35141,5.352527e-003,0.30000,60.00000,1.043637e-005
 539.00000,103.55416,5.364066e-003,0.29998,60.00000,1.043855e-005
 540.00000,103.75748,5.375412e-003,0.30003,60.00000,1.044035e-005
 541.00000,103.96135,5.386799e-003,0.30000,60.00000,1.044219e-005
 542.00000,104.16556,5.398069e-003,0.29997,60.00000,1.044392e-005
 543.00000,104.36969,5.409331e-003,0.30001,60.00000,1.044544e-005
 544.00000,104.57376,5.420310e-003,0.29999,60.00000,1.044641e-005
 545.00000,104.77790,5.431917e-003,0.30001,60.00000,1.044872e-005
 546.00000,104.98190,5.443193e-003,0.30000,60.00000,1.045035e-005
 547.00000,105.18581,5.454172e-003,0.30000,60.00000,1.045138e-005
 548.00000,105.39010,5.465892e-003,0.30000,60.00000,1.045377e-005
 549.00000,105.59485,5.477136e-003,0.30003,60.00000,1.045533e-005
 550.00000,105.79989,5.488968e-003,0.30000,60.00000,1.045786e-005
 551.00000,106.00509,5.499709e-003,0.30004,60.00000,1.045856e-005
 552.00000,106.21040,5.511203e-003,0.29999,60.00000,1.046049e-005
 553.00000,106.41586,5.522056e-003,0.30004,60.00000,1.046116e-005
 554.00000,106.62079,5.533288e-003,0.30002,60.00000,1.046284e-005
 555.00000,106.82458,5.544274e-003,0.30000,60.00000,1.046372e-005
 556.00000,107.02745,5.554958e-003,0.29999,60.00000,1.046418e-005
 557.00000,107.23050,5.565875e-003,0.30003,60.00000,1.046498e-005
 558.00000,107.43445,5.576931e-003,0.30000,60.00000,1.046616e-005
 559.00000,107.63884,5.586953e-003,0.29997,60.00000,1.046532e-005
 560.00000,107.84325,5.599428e-003,0.30002,60.00000,1.046898e-005
 561.00000,108.04760,5.610978e-003,0.29999,60.00000,1.047110e-005
 562.00000,108.25212,5.622292e-003,0.29998,60.00000,1.047261e-005
 563.00000,108.45637,5.633091e-003,0.29999,60.00000,1.047326e-005
 564.00000,108.65953,5.643899e-003,0.30000,60.00000,1.047387e-005
 565.00000,108.86209,5.654625e-003,0.30002,60.00000,1.047440e-005
 566.00000,109.06469,5.665545e-003,0.30001,60.00000,1.047522e-005
 567.00000,109.26739,5.677138e-003,0.29995,60.00000,1.047728e-005
 568.00000,109.46995,5.688149e-003,0.30001,60.00000,1.047827e-005
 569.00000,109.67227,5.699096e-003,0.30002,60.00000,1.047917e-005
 570.00000,109.87447,5.710151e-003,0.30001,60.00000,1.048023e-005
 571.00000,110.07642,5.721548e-003,0.29998,60.00000,1.048192e-005
 572.00000,110.27824,5.733043e-003,0.29999,60.00000,1.048383e-005
 573.00000,110.47994,5.744436e-003,0.29999,60.00000,1.048546e-005
 574.00000,110.68104,5.755965e-003,0.29999,60.00000,1.048743e-005
 575.00000,110.88189,5.767951e-003,0.30001,60.00000,1.049016e-005
 576.00000,111.08279,5.779089e-003,0.30000,60.00000,1.049134e-005
 577.00000,111.28364,5.790542e-003,0.29998,60.00000,1.049312e-005
 578.00000,111.48467,5.801643e-003,0.29998,60.00000,1.049418e-005
 579.00000,111.68631,5.812509e-003,0.30001,60.00000,1.049491e-005
 580.00000,111.88848,5.823908e-003,0.30010,60.00000,1.049643e-005
 581.00000,112.09086,5.835322e-003,0.30004,60.00000,1.049814e-005
 582.00000,112.29350,5.846183e-003,0.30000,60.00000,1.049884e-005
 583.00000,112.49617,5.857475e-003,0.30000,60.00000,1.050017e-005
 584.00000,112.69868,5.868393e-003,0.29999,60.00000,1.050095e-005
 585.00000,112.90086,5.879531e-003,0.30000,60.00000,1.050225e-005
 586.00000,113.10246,5.890844e-003,0.29999,60.00000,1.050352e-005
 587.00000,113.30379,5.901822e-003,0.30000,60.00000,1.050449e-005
 588.00000,113.50505,5.913105e-003,0.29997,60.00000,1.050590e-005
 589.00000,113.70646,5.924105e-003,0.30000,60.00000,1.050680e-005
 590.00000,113.90812,5.935506e-003,0.30001,60.00000,1.050842e-005
 591.00000,114.10971,5.946487e-003,0.30002,60.00000,1.050919e-005
 592.00000,114.31179,5.957854e-003,0.30000,60.00000,1.051077e-005
 593.00000,114.51433,5.968776e-003,0.29997,60.00000,1.051149e-005
 594.00000,114.71726,5.979772e-003,0.29998,60.00000,1.051229e-005
 595.00000,114.92035,5.990915e-003,0.30002,60.00000,1.051335e-005
 596.00000,115.12347,6.001544e-003,0.30001,60.00000,1.051369e-005
 597.00000,115.32667,6.012588e-003,0.30000,60.00000,1.051464e-005
 598.00000,115.52999,6.023512e-003,0.29999,60.00000,1.051526e-005
 599.00000,115.73329,6.034201e-003,0.30000,60.00000,1.051561e-005
 600.00000,115.93615,6.045086e-003,0.30001,60.00000,1.051626e-005
 601.00000,116.13854,6.055852e-003,0.30000,60.00000,1.051663e-005
 602.00000,116.34069,6.067054e-003,0.30007,60.00000,1.051793e-005
 603.00000,116.54313,6.078198e-003,0.30000,60.00000,1.051902e-005
 604.00000,116.74572,6.089247e-003,0.30002,60.00000,1.051992e-005
 605.00000,116.94835,6.099842e-003,0.30000,60.00000,1.052007e-005
 606.00000,117.15122,6.111232e-003,0.30000,60.00000,1.052158e-005
 607.00000,117.35448,6.121941e-003,0.30001,60.00000,1.052190e-005
 608.00000,117.55807,6.132553e-003,0.30001,60.00000,1.052203e-005
 609.00000,117.76187,6.143545e-003,0.30002,60.00000,1.052288e-005
 610.00000,117.96565,6.154104e-003,0.30002,60.00000,1.052286e-005
 611.00000,118.16922,6.165087e-003,0.30000,60.00000,1.052368e-005
 612.00000,118.37283,6.175475e-003,0.29998,60.00000,1.052348e-005
 613.00000,118.57621,6.186296e-003,0.29997,60.00000,1.052397e-005
 614.00000,118.77968,6.197146e-003,0.29999,60.00000,1.052454e-005
 615.00000,118.98361,6.208263e-003,0.30000,60.00000,1.052549e-005
 616.00000,119.18831,6.219348e-003,0.30004,60.00000,1.052647e-005
 617.00000,119.39392,6.230372e-003,0.30000,60.00000,1.052731e-005
 618.00000,119.60015,6.241463e-003,0.29997,60.00000,1.052823e-005
 619.00000,119.80703,6.252433e-003,0.29997,60.00000,1.052909e-005
 620.00000,120.01430,6.263255e-003,0.30005,60.00000,1.052958e-005
 621.00000,120.22179,6.273779e-003,0.30000,60.00000,1.052958e-005
 622.00000,120.42914,6.284591e-003,0.30000,60.00000,1.053004e-005
 623.00000,120.63550,6.294746e-003,0.29997,60.00000,1.052940e-005
 624.00000,120.84052,6.304963e-003,0.29987,60.00000,1.052890e-005
 625.00000,121.04461,6.315571e-003,0.29999,60.00000,1.052902e-005
 626.00000,121.24807,6.326543e-003,0.29997,60.00000,1.052969e-005
 627.00000,121.45131,6.337000e-003,0.29999,60.00000,1.052965e-005
 628.00000,121.65410,6.347517e-003,0.29998,60.00000,1.052963e-005
 629.00000,121.85562,6.357729e-003,0.29998,60.00000,1.052906e-005
 630.00000,122.05601,6.368329e-003,0.29999,60.00000,1.052915e-005
 631.00000,122.25597,6.378631e-003,0.30000,60.00000,1.052877e-005
 632.00000,122.45654,6.389115e-003,0.30002,60.00000,1.052868e-005
 633.00000,122.65847,6.399189e-003,0.30000,60.00000,1.052794e-005
 634.00000,122.86182,6.410003e-003,0.29998,60.00000,1.052834e-005
 635.00000,123.06602,6.420559e-003,0.30000,60.00000,1.052853e-005
 636.00000,123.27085,6.430852e-003,0.30000,60.00000,1.052809e-005
 637.00000,123.47569,6.440883e-003,0.30000,60.00000,1.052728e-005
 638.00000,123.67992,6.450817e-003,0.30003,60.00000,1.052638e-005
 639.00000,123.88347,6.460865e-003,0.30002,60.00000,1.052551e-005
 640.00000,124.08638,6.470768e-003,0.30000,60.00000,1.052452e-005
 641.00000,124.28900,6.480661e-003,0.30002,60.00000,1.052341e-005
 642.00000,124.49152,6.490784e-003,0.30002,60.00000,1.052293e-005
 643.00000,124.69409,6.501149e-003,0.30004,60.00000,1.052257e-005
 644.00000,124.89673,6.511735e-003,0.30001,60.00000,1.052264e-005
 645.00000,125.09892,6.521648e-003,0.30000,60.00000,1.052169e-005
 646.00000,125.30025,6.531864e-003,0.30000,60.00000,1.052121e-005
 647.00000,125.50085,6.542541e-003,0.30000,60.00000,1.052143e-005
 648.00000,125.70031,6.552047e-003,0.29999,60.00000,1.051987e-005
 649.00000,125.89867,6.562143e-003,0.29999,60.00000,1.051905e-005
 650.00000,126.09651,6.571475e-003,0.30002,60.00000,1.051716e-005
 651.00000,126.29488,6.580876e-003,0.30008,60.00000,1.051539e-005
 652.00000,126.49402,6.590325e-003,0.30006,60.00000,1.051371e-005
 653.00000,126.69414,6.600118e-003,0.29997,60.00000,1.051246e-005
 654.00000,126.89485,6.610179e-003,0.29999,60.00000,1.051187e-005
 655.00000,127.09567,6.619960e-003,0.29998,60.00000,1.051062e-005
 656.00000,127.29688,6.630210e-003,0.29999,60.00000,1.051017e-005
 657.00000,127.49865,6.640399e-003,0.30000,60.00000,1.050969e-005
 658.00000,127.70101,6.650893e-003,0.29999,60.00000,1.050968e-005
 659.00000,127.90385,6.660616e-003,0.30001,60.00000,1.050843e-005
 660.00000,128.10720,6.671684e-003,0.29999,60.00000,1.050927e-005
 661.00000,128.31205,6.682023e-003,0.30002,60.00000,1.050905e-005
 662.00000,128.51875,6.692606e-003,0.30000,60.00000,1.050916e-005
 663.00000,128.72567,6.702868e-003,0.30002,60.00000,1.050875e-005
 664.00000,128.93196,6.712943e-003,0.30000,60.00000,1.050802e-005
 665.00000,129.13742,6.722382e-003,0.30000,60.00000,1.050644e-005
 666.00000,129.34160,6.731747e-003,0.30001,60.00000,1.050456e-005
 667.00000,129.54488,6.741722e-003,0.30002,60.00000,1.050369e-005
 668.00000,129.74740,6.751325e-003,0.29999,60.00000,1.050233e-005
 669.00000,129.94968,6.760939e-003,0.29999,60.00000,1.050103e-005
 670.00000,130.15255,6.769879e-003,0.29999,60.00000,1.049846e-005
 671.00000,130.35750,6.779681e-003,0.29999,60.00000,1.049733e-005
 672.00000,130.56560,6.789019e-003,0.29998,60.00000,1.049564e-005
 673.00000,130.77580,6.798674e-003,0.30002,60.00000,1.049426e-005
 674.00000,130.98703,6.808250e-003,0.30001,60.00000,1.049289e-005
 675.00000,131.19767,6.817980e-003,0.30000,60.00000,1.049177e-005
 676.00000,131.40688,6.827520e-003,0.29999,60.00000,1.049026e-005
 677.00000,131.61541,6.837587e-003,0.30000,60.00000,1.048957e-005
 678.00000,131.82387,6.847510e-003,0.29998,60.00000,1.048870e-005
 679.00000,132.03320,6.857582e-003,0.29987,60.00000,1.048798e-005
 680.00000,132.24400,6.868091e-003,0.29998,60.00000,1.048813e-005
 681.00000,132.45528,6.878509e-003,0.30000,60.00000,1.048801e-005
 682.00000,132.66674,6.888793e-003,0.30001,60.00000,1.048768e-005
 683.00000,132.87772,6.898857e-003,0.30001,60.00000,1.048709e-005
 684.00000,133.08735,6.908785e-003,0.30000,60.00000,1.048621e-005
 685.00000,133.29578,6.919178e-003,0.29999,60.00000,1.048602e-005
 686.00000,133.50247,6.929133e-003,0.30000,60.00000,1.048522e-005
 687.00000,133.70710,6.939534e-003,0.30003,60.00000,1.048508e-005
 688.00000,133.91046,6.949806e-003,0.29999,60.00000,1.048479e-005
 689.00000,134.11278,6.960374e-003,0.29996,60.00000,1.048498e-005
 690.00000,134.31426,6.971371e-003,0.30003,60.00000,1.048569e-005
 691.00000,134.51578,6.981943e-003,0.29996,60.00000,1.048590e-005
 692.00000,134.71771,6.992866e-003,0.30005,60.00000,1.048649e-005
 693.00000,134.91986,7.003373e-003,0.30002,60.00000,1.048653e-005
 694.00000,135.12237,7.013472e-003,0.30002,60.00000,1.048595e-005
 695.00000,135.32498,7.024370e-003,0.30002,60.00000,1.048659e-005
 696.00000,135.52728,7.035055e-003,0.30001,60.00000,1.048680e-005
 697.00000,135.72977,7.045715e-003,0.30001,60.00000,1.048707e-005
 698.00000,135.93314,7.056481e-003,0.30002,60.00000,1.048749e-005
 699.00000,136.13718,7.066907e-003,0.30001,60.00000,1.048742e-005
 700.00000,136.34174,7.077501e-003,0.30001,60.00000,1.048761e-005
 701.00000,136.54601,7.087989e-003,0.30003,60.00000,1.048754e-005
 702.00000,136.74939,7.098621e-003,0.30001,60.00000,1.048782e-005
 703.00000,136.95205,7.109194e-003,0.30003,60.00000,1.048791e-005
 704.00000,137.15368,7.119786e-003,0.30001,60.00000,1.048808e-005
 705.00000,137.35351,7.130050e-003,0.30005,60.00000,1.048776e-005
 706.00000,137.55067,7.140819e-003,0.30001,60.00000,1.048823e-005
 707.00000,137.74537,7.151346e-003,0.30001,60.00000,1.048820e-005
 708.00000,137.93853,7.162498e-003,0.30001,60.00000,1.048921e-005
 709.00000,138.13161,7.173583e-003,0.29998,60.00000,1.048999e-005
 710.00000,138.32530,7.184423e-003,0.30000,60.00000,1.049055e-005
 711.00000,138.52065,7.195385e-003,0.30001,60.00000,1.049123e-005
 712.00000,138.71811,7.206509e-003,0.29999,60.00000,1.049223e-005
 713.00000,138.91709,7.217777e-003,0.29999,60.00000,1.049331e-005
 714.00000,139.11777,7.228724e-003,0.30002,60.00000,1.049399e-005
 715.00000,139.31956,7.239110e-003,0.30001,60.00000,1.049388e-005
 716.00000,139.52163,7.250343e-003,0.30000,60.00000,1.049491e-005
 717.00000,139.72395,7.261043e-003,0.30000,60.00000,1.049524e-005
 718.00000,139.92617,7.271597e-003,0.30000,60.00000,1.049531e-005
 719.00000,140.12772,7.282428e-003,0.30005,60.00000,1.049586e-005
 720.00000,140.32807,7.293000e-003,0.30000,60.00000,1.049587e-005
 721.00000,140.52760,7.303906e-003,0.30002,60.00000,1.049653e-005
 722.00000,140.72687,7.314363e-003,0.30000,60.00000,1.049648e-005
 723.00000,140.92622,7.325056e-003,0.29997,60.00000,1.049670e-005
 724.00000,141.12531,7.335658e-003,0.30000,60.00000,1.049689e-005
 725.00000,141.32415,7.346247e-003,0.30000,60.00000,1.049702e-005
 726.00000,141.52322,7.356529e-003,0.30004,60.00000,1.049668e-005
 727.00000,141.72226,7.367015e-003,0.30001,60.00000,1.049671e-005
 728.00000,141.92149,7.377470e-003,0.30001,60.00000,1.049660e-005
 729.00000,142.12046,7.387999e-003,0.30002,60.00000,1.049670e-005
 730.00000,142.31863,7.398646e-003,0.29992,60.00000,1.049690e-005
 731.00000,142.51606,7.409596e-003,0.30000,60.00000,1.049754e-005
 732.00000,142.71304,7.420587e-003,0.30000,60.00000,1.049822e-005
 733.00000,142.90983,7.431943e-003,0.30000,60.00000,1.049950e-005
 734.00000,143.10684,7.443981e-003,0.29999,60.00000,1.050162e-005
 735.00000,143.30424,7.455124e-003,0.29998,60.00000,1.050253e-005
 736.00000,143.50178,7.466164e-003,0.30000,60.00000,1.050333e-005
 737.00000,143.69923,7.477733e-003,0.30000,60.00000,1.050487e-005
 738.00000,143.89652,7.488929e-003,0.30000,60.00000,1.050577e-005
 739.00000,144.09376,7.500361e-003,0.30001,60.00000,1.050712e-005
 740.00000,144.29136,7.511391e-003,0.30002,60.00000,1.050779e-005
 741.00000,144.48909,7.522360e-003,0.30001,60.00000,1.050849e-005
 742.00000,144.68695,7.533030e-003,0.29999,60.00000,1.050877e-005
 743.00000,144.88525,7.544074e-003,0.30001,60.00000,1.050945e-005
 744.00000,145.08368,7.555269e-003,0.30002,60.00000,1.051046e-005
 745.00000,145.28209,7.566616e-003,0.30002,60.00000,1.051155e-005
 746.00000,145.48032,7.577801e-003,0.30002,60.00000,1.051254e-005
 747.00000,145.67840,7.589428e-003,0.29997,60.00000,1.051404e-005
 748.00000,145.87625,7.600715e-003,0.29996,60.00000,1.051517e-005
 749.00000,146.07383,7.611975e-003,0.30001,60.00000,1.051622e-005
 750.00000,146.27094,7.623102e-003,0.29999,60.00000,1.051708e-005
 751.00000,146.46763,7.634558e-003,0.30001,60.00000,1.051834e-005
 752.00000,146.66353,7.645887e-003,0.30003,60.00000,1.051962e-005
 753.00000,146.85840,7.657314e-003,0.30014,60.00000,1.052078e-005
 754.00000,147.05248,7.669675e-003,0.29999,60.00000,1.052322e-005
 755.00000,147.24646,7.681503e-003,0.30000,60.00000,1.052513e-005
 756.00000,147.44084,7.693813e-003,0.30004,60.00000,1.052758e-005
 757.00000,147.63598,7.706309e-003,0.30000,60.00000,1.053025e-005
 758.00000,147.83297,7.718874e-003,0.30003,60.00000,1.053300e-005
 759.00000,148.03195,7.731446e-003,0.30002,60.00000,1.053582e-005
 760.00000,148.23232,7.743748e-003,0.29999,60.00000,1.053821e-005
 761.00000,148.43421,7.756120e-003,0.30000,60.00000,1.054076e-005
 762.00000,148.63710,7.768238e-003,0.29998,60.00000,1.054295e-005
 763.00000,148.84037,7.780337e-003,0.30000,60.00000,1.054496e-005
 764.00000,149.04360,7.792205e-003,0.30000,60.00000,1.054686e-005
 765.00000,149.24595,7.804056e-003,0.30000,60.00000,1.054863e-005
 766.00000,149.44706,7.815735e-003,0.30001,60.00000,1.055021e-005
 767.00000,149.64713,7.827546e-003,0.30001,60.00000,1.055184e-005
 768.00000,149.84612,7.839342e-003,0.30003,60.00000,1.055362e-005
 769.00000,150.04411,7.850904e-003,0.29998,60.00000,1.055493e-005
 770.00000,150.24137,7.863076e-003,0.29999,60.00000,1.055714e-005
 771.00000,150.43849,7.875152e-003,0.29997,60.00000,1.055914e-005
 772.00000,150.63572,7.887821e-003,0.29999,60.00000,1.056199e-005
 773.00000,150.83302,7.899596e-003,0.30007,60.00000,1.056359e-005
 774.00000,151.03020,7.912556e-003,0.30001,60.00000,1.056685e-005
 775.00000,151.22700,7.925356e-003,0.30003,60.00000,1.056989e-005
 776.00000,151.42309,7.938165e-003,0.30000,60.00000,1.057283e-005
 777.00000,151.61863,7.950253e-003,0.30000,60.00000,1.057487e-005
 778.00000,151.81419,7.962866e-003,0.30003,60.00000,1.057762e-005
 779.00000,152.00989,7.975544e-003,0.29997,60.00000,1.058046e-005
 780.00000,152.20567,7.989377e-003,0.30002,60.00000,1.058472e-005
 781.00000,152.40161,8.002784e-003,0.29997,60.00000,1.058850e-005
 782.00000,152.59807,8.015613e-003,0.30004,60.00000,1.059142e-005
 783.00000,152.79495,8.028631e-003,0.30002,60.00000,1.059470e-005
 784.00000,152.99215,8.041686e-003,0.29999,60.00000,1.059794e-005
 785.00000,153.18950,8.054732e-003,0.30001,60.00000,1.060116e-005
 786.00000,153.38702,8.067251e-003,0.30002,60.00000,1.060377e-005
 787.00000,153.58476,8.080390e-003,0.29997,60.00000,1.060711e-005
 788.00000,153.78238,8.093460e-003,0.29998,60.00000,1.061035e-005
 789.00000,153.97943,8.107013e-003,0.29998,60.00000,1.061421e-005
 790.00000,154.17610,8.120071e-003,0.30007,60.00000,1.061744e-005
 791.00000,154.37287,8.132847e-003,0.30003,60.00000,1.062029e-005
 792.00000,154.56955,8.146033e-003,0.30000,60.00000,1.062368e-005
 793.00000,154.76622,8.159850e-003,0.30003,60.00000,1.062777e-005
 794.00000,154.96334,8.173419e-003,0.30002,60.00000,1.063164e-005
 795.00000,155.16115,8.187177e-003,0.30002,60.00000,1.063576e-005
 796.00000,155.35956,8.200671e-003,0.30001,60.00000,1.063946e-005
 797.00000,155.55807,8.213981e-003,0.30002,60.00000,1.064303e-005
 798.00000,155.75597,8.227577e-003,0.30000,60.00000,1.064681e-005
 799.00000,155.95260,8.240474e-003,0.30000,60.00000,1.064980e-005
 800.00000,156.14816,8.253882e-003,0.30002,60.00000,1.065336e-005
 801.00000,156.34359,8.266820e-003,0.30003,60.00000,1.065625e-005
 802.00000,156.53957,8.279966e-003,0.30000,60.00000,1.065946e-005
 803.00000,156.73617,8.293138e-003,0.30001,60.00000,1.066275e-005
 804.00000,156.93391,8.306050e-003,0.30003,60.00000,1.066566e-005
 805.00000,157.13242,8.318741e-003,0.30002,60.00000,1.066825e-005
 806.00000,157.33091,8.332485e-003,0.29999,60.00000,1.067218e-005
 807.00000,157.53018,8.345514e-003,0.29999,60.00000,1.067529e-005
 808.00000,157.73008,8.357791e-003,0.29998,60.00000,1.067736e-005
 809.00000,157.92953,8.370586e-003,0.29985,60.00000,1.068005e-005
 810.00000,158.12852,8.383599e-003,0.29997,60.00000,1.068309e-005
 811.00000,158.32742,8.396366e-003,0.30001,60.00000,1.068571e-005
 812.00000,158.52614,8.409727e-003,0.29999,60.00000,1.068915e-005
 813.00000,158.72524,8.423324e-003,0.30002,60.00000,1.069280e-005
 814.00000,158.92533,8.436623e-003,0.30002,60.00000,1.069621e-005
 815.00000,159.12604,8.450559e-003,0.29999,60.00000,1.070028e-005
 816.00000,159.32684,8.464122e-003,0.29998,60.00000,1.070395e-005
 817.00000,159.52769,8.477839e-003,0.29997,60.00000,1.070776e-005
 818.00000,159.72866,8.491566e-003,0.30001,60.00000,1.071160e-005
 819.00000,159.92982,8.504846e-003,0.30004,60.00000,1.071485e-005
 820.00000,160.13114,8.517963e-003,0.29999,60.00000,1.071788e-005
 821.00000,160.33243,8.531548e-003,0.30002,60.00000,1.072156e-005
 822.00000,160.53309,8.544433e-003,0.30001,60.00000,1.072424e-005
 823.00000,160.73264,8.557412e-003,0.30003,60.00000,1.072708e-005
 824.00000,160.93093,8.570301e-003,0.30002,60.00000,1.072984e-005
 825.00000,161.12823,8.583013e-003,0.30001,60.00000,1.073229e-005
 826.00000,161.32534,8.595553e-003,0.30001,60.00000,1.073456e-005
 827.00000,161.52347,8.608510e-003,0.30012,60.00000,1.073732e-005
 828.00000,161.72342,8.621793e-003,0.30001,60.00000,1.074056e-005
 829.00000,161.92497,8.634697e-003,0.30000,60.00000,1.074328e-005
 830.00000,162.12742,8.648379e-003,0.29999,60.00000,1.074694e-005
 831.00000,162.33069,8.661681e-003,0.30000,60.00000,1.075013e-005
 832.00000,162.53429,8.673984e-003,0.29998,60.00000,1.075206e-005
 833.00000,162.73721,8.687592e-003,0.30002,60.00000,1.075562e-005
 834.00000,162.93943,8.699721e-003,0.30000,60.00000,1.075734e-005
 835.00000,163.14140,8.712548e-003,0.29997,60.00000,1.075989e-005
 836.00000,163.34279,8.725830e-003,0.30001,60.00000,1.076304e-005
 837.00000,163.54249,8.738505e-003,0.30001,60.00000,1.076544e-005
 838.00000,163.74009,8.751044e-003,0.30002,60.00000,1.076759e-005
 839.00000,163.93637,8.763765e-003,0.30003,60.00000,1.076998e-005
 840.00000,164.13184,8.775762e-003,0.30001,60.00000,1.077154e-005
 841.00000,164.32663,8.789260e-003,0.30004,60.00000,1.077486e-005
 842.00000,164.52106,8.801883e-003,0.30001,60.00000,1.077720e-005
 843.00000,164.71603,8.814404e-003,0.29999,60.00000,1.077938e-005
 844.00000,164.91177,8.827071e-003,0.30001,60.00000,1.078158e-005
 845.00000,165.10833,8.839147e-003,0.29999,60.00000,1.078321e-005
 846.00000,165.30565,8.850831e-003,0.29984,60.00000,1.078433e-005
 847.00000,165.50308,8.864090e-003,0.30002,60.00000,1.078733e-005
 848.00000,165.70089,8.877230e-003,0.30001,60.00000,1.079020e-005
 849.00000,165.89865,8.890700e-003,0.30002,60.00000,1.079351e-005
 850.00000,166.09610,8.905369e-003,0.30001,60.00000,1.079825e-005
 851.00000,166.29372,8.919135e-003,0.29998,60.00000,1.080187e-005
 852.00000,166.49094,8.933724e-003,0.30001,60.00000,1.080646e-005
 853.00000,166.68721,8.947273e-003,0.29997,60.00000,1.080980e-005
 854.00000,166.88288,8.960576e-003,0.29997,60.00000,1.081281e-005
 855.00000,167.07868,8.973904e-003,0.29999,60.00000,1.081589e-005
 856.00000,167.27491,8.986173e-003,0.30000,60.00000,1.081765e-005
 857.00000,167.47120,8.998367e-003,0.30002,60.00000,1.081928e-005
 858.00000,167.66791,9.010552e-003,0.30002,60.00000,1.082094e-005
 859.00000,167.86561,9.022274e-003,0.30002,60.00000,1.082200e-005
 860.00000,168.06388,9.034473e-003,0.30003,60.00000,1.082366e-005
 861.00000,168.26259,9.046758e-003,0.30003,60.00000,1.082542e-005
 862.00000,168.46129,9.058760e-003,0.30000,60.00000,1.082687e-005
 863.00000,168.65965,9.071107e-003,0.30002,60.00000,1.082864e-005
 864.00000,168.85805,9.082795e-003,0.29999,60.00000,1.082967e-005
 865.00000,169.05640,9.095100e-003,0.30001,60.00000,1.083151e-005
 866.00000,169.25472,9.108695e-003,0.30006,60.00000,1.083476e-005
 867.00000,169.45328,9.121963e-003,0.30000,60.00000,1.083771e-005
 868.00000,169.65191,9.134868e-003,0.30000,60.00000,1.084013e-005
 869.00000,169.85001,9.147901e-003,0.29996,60.00000,1.084273e-005
 870.00000,170.04786,9.161006e-003,0.29999,60.00000,1.084550e-005
 871.00000,170.24538,9.174109e-003,0.30002,60.00000,1.084811e-005
 872.00000,170.44266,9.187334e-003,0.30001,60.00000,1.085093e-005
 873.00000,170.64044,9.200708e-003,0.29998,60.00000,1.085393e-005
 874.00000,170.83807,9.214123e-003,0.29997,60.00000,1.085702e-005
 875.00000,171.03566,9.227555e-003,0.30002,60.00000,1.086005e-005
 876.00000,171.23456,9.240669e-003,0.30003,60.00000,1.086267e-005
 877.00000,171.43481,9.254192e-003,0.30001,60.00000,1.086583e-005
 878.00000,171.63579,9.267132e-003,0.30001,60.00000,1.086825e-005
 879.00000,171.83705,9.280267e-003,0.30001,60.00000,1.087101e-005
 880.00000,172.03843,9.293322e-003,0.30001,60.00000,1.087349e-005
 881.00000,172.23992,9.306249e-003,0.30002,60.00000,1.087598e-005
 882.00000,172.44166,9.318573e-003,0.30002,60.00000,1.087762e-005
 883.00000,172.64396,9.330156e-003,0.29998,60.00000,1.087849e-005
 884.00000,172.84683,9.342425e-003,0.30002,60.00000,1.088005e-005
 885.00000,173.05024,9.355188e-003,0.29998,60.00000,1.088232e-005
 886.00000,173.25365,9.367934e-003,0.29999,60.00000,1.088451e-005
 887.00000,173.45558,9.379960e-003,0.29997,60.00000,1.088583e-005
 888.00000,173.65581,9.392270e-003,0.30000,60.00000,1.088746e-005
 889.00000,173.85490,9.404990e-003,0.29999,60.00000,1.088961e-005
 890.00000,174.05362,9.417778e-003,0.29996,60.00000,1.089174e-005
 891.00000,174.25270,9.429826e-003,0.30000,60.00000,1.089315e-005
 892.00000,174.45257,9.442302e-003,0.30002,60.00000,1.089494e-005
 893.00000,174.65280,9.455024e-003,0.30001,60.00000,1.089706e-005
 894.00000,174.85383,9.467596e-003,0.29999,60.00000,1.089906e-005
 895.00000,175.05576,9.480148e-003,0.30002,60.00000,1.090096e-005
 896.00000,175.25815,9.492281e-003,0.30002,60.00000,1.090240e-005
 897.00000,175.46059,9.504594e-003,0.29999,60.00000,1.090397e-005
 898.00000,175.66188,9.516312e-003,0.30003,60.00000,1.090496e-005
 899.00000,175.86194,9.528342e-003,0.30001,60.00000,1.090624e-005
 900.00000,176.06114,9.540017e-003,0.29998,60.00000,1.090709e-005
 901.00000,176.25935,9.551720e-003,0.29998,60.00000,1.090804e-005
 902.00000,176.45695,9.563557e-003,0.30000,60.00000,1.090909e-005
 903.00000,176.65455,9.574914e-003,0.30001,60.00000,1.090962e-005
 904.00000,176.85228,9.587062e-003,0.30000,60.00000,1.091100e-005
 905.00000,177.04889,9.599475e-003,0.30000,60.00000,1.091277e-005
 906.00000,177.24492,9.611819e-003,0.29999,60.00000,1.091437e-005
 907.00000,177.44137,9.623367e-003,0.30002,60.00000,1.091515e-005
 908.00000,177.63830,9.635715e-003,0.30000,60.00000,1.091677e-005
 909.00000,177.83558,9.647531e-003,0.30000,60.00000,1.091773e-005
 910.00000,178.03307,9.659671e-003,0.30001,60.00000,1.091918e-005
 911.00000,178.23161,9.671975e-003,0.30002,60.00000,1.092071e-005
 912.00000,178.43147,9.684296e-003,0.29999,60.00000,1.092227e-005
 913.00000,178.63151,9.696343e-003,0.30000,60.00000,1.092362e-005
 914.00000,178.83106,9.708385e-003,0.29999,60.00000,1.092485e-005
 915.00000,179.03032,9.720827e-003,0.30001,60.00000,1.092658e-005
 916.00000,179.22913,9.732306e-003,0.29996,60.00000,1.092717e-005
 917.00000,179.42765,9.744706e-003,0.30001,60.00000,1.092890e-005
 918.00000,179.62618,9.756547e-003,0.29996,60.00000,1.092987e-005
 919.00000,179.82447,9.768756e-003,0.29997,60.00000,1.093131e-005
 920.00000,180.02262,9.780718e-003,0.30001,60.00000,1.093245e-005
 921.00000,180.22073,9.792779e-003,0.29998,60.00000,1.093369e-005
 922.00000,180.41854,9.804518e-003,0.30000,60.00000,1.093466e-005
 923.00000,180.61596,9.816346e-003,0.30001,60.00000,1.093562e-005
 924.00000,180.81367,9.828073e-003,0.29980,60.00000,1.093654e-005
 925.00000,181.01208,9.840318e-003,0.29998,60.00000,1.093795e-005
 926.00000,181.21114,9.852222e-003,0.30003,60.00000,1.093903e-005
 927.00000,181.41047,9.864229e-003,0.30004,60.00000,1.094025e-005
 928.00000,181.60924,9.876210e-003,0.30000,60.00000,1.094142e-005
 929.00000,181.80767,9.888238e-003,0.30000,60.00000,1.094258e-005
 930.00000,182.00609,9.900223e-003,0.30000,60.00000,1.094381e-005
 931.00000,182.20453,9.912542e-003,0.30002,60.00000,1.094526e-005
 932.00000,182.40315,9.925005e-003,0.30001,60.00000,1.094700e-005
 933.00000,182.60202,9.937020e-003,0.29997,60.00000,1.094823e-005
 934.00000,182.80026,9.948834e-003,0.29998,60.00000,1.094911e-005
 935.00000,182.99731,9.960855e-003,0.30001,60.00000,1.095028e-005
 936.00000,183.19367,9.972499e-003,0.30001,60.00000,1.095103e-005
 937.00000,183.39052,9.984305e-003,0.30001,60.00000,1.095197e-005
 938.00000,183.58848,9.996333e-003,0.29999,60.00000,1.095320e-005
 939.00000,183.78733,1.000793e-002,0.30001,60.00000,1.095394e-005
 940.00000,183.98685,1.001985e-002,0.30001,60.00000,1.095496e-005
 941.00000,184.18685,1.003159e-002,0.29999,60.00000,1.095579e-005
 942.00000,184.38735,1.004342e-002,0.30002,60.00000,1.095675e-005
 943.00000,184.58851,1.005458e-002,0.30000,60.00000,1.095700e-005
 944.00000,184.78984,1.006627e-002,0.30000,60.00000,1.095777e-005
 945.00000,184.99117,1.007747e-002,0.30001,60.00000,1.095805e-005
 946.00000,185.19287,1.008887e-002,0.29995,60.00000,1.095856e-005
 947.00000,185.39488,1.010056e-002,0.30005,60.00000,1.095936e-005
 948.00000,185.59648,1.011217e-002,0.30000,60.00000,1.096006e-005
 949.00000,185.79773,1.012355e-002,0.29999,60.00000,1.096054e-005
 950.00000,185.99875,1.013509e-002,0.30000,60.00000,1.096118e-005
 951.00000,186.19954,1.014637e-002,0.30002,60.00000,1.096154e-005
 952.00000,186.40088,1.015802e-002,0.29998,60.00000,1.096222e-005
 953.00000,186.60260,1.016945e-002,0.29998,60.00000,1.096274e-005
 954.00000,186.80432,1.018092e-002,0.30000,60.00000,1.096329e-005
 955.00000,187.00613,1.019234e-002,0.30000,60.00000,1.096377e-005
 956.00000,187.20832,1.020382e-002,0.30003,60.00000,1.096434e-005
 957.00000,187.40977,1.021543e-002,0.29998,60.00000,1.096506e-005
 958.00000,187.61023,1.022662e-002,0.29997,60.00000,1.096527e-005
 959.00000,187.81072,1.023812e-002,0.30000,60.00000,1.096587e-005
 960.00000,188.01140,1.024918e-002,0.30001,60.00000,1.096596e-005
 961.00000,188.21219,1.026088e-002,0.29999,60.00000,1.096675e-005
 962.00000,188.41297,1.027234e-002,0.30000,60.00000,1.096734e-005
 963.00000,188.61320,1.028380e-002,0.30000,60.00000,1.096786e-005
 964.00000,188.81203,1.029462e-002,0.29997,60.00000,1.096767e-005
 965.00000,189.00959,1.030573e-002,0.30000,60.00000,1.096783e-005
 966.00000,189.20701,1.031740e-002,0.30000,60.00000,1.096853e-005
 967.00000,189.40494,1.032878e-002,0.30002,60.00000,1.096899e-005
 968.00000,189.60291,1.033978e-002,0.30012,60.00000,1.096909e-005
 969.00000,189.80049,1.035183e-002,0.30000,60.00000,1.097017e-005
 970.00000,189.99795,1.036344e-002,0.29997,60.00000,1.097085e-005
 971.00000,190.19632,1.037506e-002,0.30001,60.00000,1.097153e-005
 972.00000,190.39562,1.038662e-002,0.30001,60.00000,1.097217e-005
 973.00000,190.59497,1.039796e-002,0.30001,60.00000,1.097254e-005
 974.00000,190.79390,1.040940e-002,0.30002,60.00000,1.097305e-005
 975.00000,190.99321,1.042055e-002,0.29999,60.00000,1.097323e-005
 976.00000,191.19299,1.043175e-002,0.30000,60.00000,1.097354e-005
 977.00000,191.39214,1.044322e-002,0.30001,60.00000,1.097406e-005
 978.00000,191.59030,1.045464e-002,0.29996,60.00000,1.097450e-005
 979.00000,191.78786,1.046620e-002,0.29998,60.00000,1.097515e-005
 980.00000,191.98482,1.047727e-002,0.29999,60.00000,1.097521e-005
 981.00000,192.18102,1.048861e-002,0.29999,60.00000,1.097561e-005
 982.00000,192.37724,1.049964e-002,0.30001,60.00000,1.097567e-005
 983.00000,192.57428,1.051105e-002,0.29998,60.00000,1.097608e-005
 984.00000,192.77225,1.052253e-002,0.30003,60.00000,1.097661e-005
 985.00000,192.97050,1.053344e-002,0.30002,60.00000,1.097656e-005
 986.00000,193.16847,1.054480e-002,0.30000,60.00000,1.097697e-005
 987.00000,193.36562,1.055615e-002,0.30003,60.00000,1.097737e-005
 988.00000,193.56204,1.056716e-002,0.30000,60.00000,1.097742e-005
 989.00000,193.75688,1.057825e-002,0.30002,60.00000,1.097755e-005
 990.00000,193.94997,1.058914e-002,0.30004,60.00000,1.097740e-005
 991.00000,194.14289,1.060063e-002,0.30000,60.00000,1.097797e-005
 992.00000,194.33731,1.061246e-002,0.30000,60.00000,1.097881e-005
 993.00000,194.53385,1.062429e-002,0.30001,60.00000,1.097970e-005
 994.00000,194.73175,1.063602e-002,0.30003,60.00000,1.098047e-005
 995.00000,194.93099,1.064748e-002,0.30002,60.00000,1.098098e-005
 996.00000,195.13186,1.065915e-002,0.30001,60.00000,1.098168e-005
 997.00000,195.33438,1.067034e-002,0.29995,60.00000,1.098187e-005
 998.00000,195.53881,1.068236e-002,0.29999,60.00000,1.098301e-005
 999.00000,195.74205,1.069339e-002,0.30003,60.00000,1.098305e-005
1000.00000,195.94314,1.070494e-002,0.30006,60.00000,1.098361e-005
1001.00000,196.14449,1.071631e-002,0.30000,60.00000,1.098402e-005
1002.00000,196.34628,1.072836e-002,0.30002,60.00000,1.098513e-005
1003.00000,196.54802,1.073980e-002,0.29998,60.00000,1.098556e-005
1004.00000,196.74992,1.075130e-002,0.30003,60.00000,1.098612e-005
1005.00000,196.95201,1.076261e-002,0.30000,60.00000,1.098648e-005
1006.00000,197.15378,1.077392e-002,0.30002,60.00000,1.098676e-005
1007.00000,197.35518,1.078522e-002,0.29997,60.00000,1.098710e-005
1008.00000,197.55630,1.079672e-002,0.30002,60.00000,1.098761e-005
1009.00000,197.75755,1.080804e-002,0.30001,60.00000,1.098798e-005
1010.00000,197.95926,1.081911e-002,0.29999,60.00000,1.098804e-005
1011.00000,198.16144,1.083041e-002,0.30001,60.00000,1.098834e-005
1012.00000,198.36457,1.084174e-002,0.30000,60.00000,1.098872e-005
1013.00000,198.56860,1.085317e-002,0.30002,60.00000,1.098914e-005
1014.00000,198.77340,1.086434e-002,0.30004,60.00000,1.098933e-005
1015.00000,198.97823,1.087523e-002,0.30000,60.00000,1.098929e-005
1016.00000,199.18142,1.088638e-002,0.29999,60.00000,1.098945e-005
1017.00000,199.38167,1.089720e-002,0.30001,60.00000,1.098931e-005
1018.00000,199.58023,1.090746e-002,0.29999,60.00000,1.098851e-005
1019.00000,199.77850,1.091894e-002,0.30002,60.00000,1.098906e-005
1020.00000,199.97629,1.092993e-002,0.29999,60.00000,1.098903e-005
1021.00000,200.17246,1.094110e-002,0.30002,60.00000,1.098919e-005
1022.00000,200.36721,1.095230e-002,0.30003,60.00000,1.098937e-005
1023.00000,200.56203,1.096368e-002,0.29997,60.00000,1.098980e-005
1024.00000,200.75773,1.097491e-002,0.29999,60.00000,1.099002e-005
1025.00000,200.95407,1.098616e-002,0.29999,60.00000,1.099028e-005
1026.00000,201.15110,1.099741e-002,0.30003,60.00000,1.099054e-005
1027.00000,201.34898,1.100888e-002,0.30000,60.00000,1.099104e-005
1028.00000,201.54746,1.102022e-002,0.30003,60.00000,1.099137e-005
1029.00000,201.74672,1.103162e-002,0.29997,60.00000,1.099183e-005
1030.00000,201.94680,1.104302e-002,0.30000,60.00000,1.099219e-005
1031.00000,202.14656,1.105436e-002,0.30002,60.00000,1.099255e-005
1032.00000,202.34563,1.106558e-002,0.30002,60.00000,1.099278e-005
1033.00000,202.54453,1.107706e-002,0.29997,60.00000,1.099325e-005
1034.00000,202.74396,1.108854e-002,0.30000,60.00000,1.099373e-005
1035.00000,202.94325,1.109977e-002,0.30003,60.00000,1.099401e-005
1036.00000,203.14172,1.111088e-002,0.30003,60.00000,1.099410e-005
1037.00000,203.33944,1.112213e-002,0.30002,60.00000,1.099434e-005
1038.00000,203.53658,1.113295e-002,0.30001,60.00000,1.099418e-005
1039.00000,203.73317,1.114477e-002,0.29998,60.00000,1.099498e-005
1040.00000,203.92944,1.115633e-002,0.29998,60.00000,1.099557e-005
1041.00000,204.12602,1.116839e-002,0.30000,60.00000,1.099659e-005
1042.00000,204.32183,1.118053e-002,0.30005,60.00000,1.099776e-005
1043.00000,204.51651,1.119206e-002,0.29999,60.00000,1.099829e-005
1044.00000,204.71060,1.120404e-002,0.30001,60.00000,1.099926e-005
1045.00000,204.90440,1.121560e-002,0.30000,60.00000,1.099976e-005
1046.00000,205.09783,1.122701e-002,0.29999,60.00000,1.100018e-005
1047.00000,205.29159,1.123873e-002,0.30000,60.00000,1.100085e-005
1048.00000,205.48637,1.125072e-002,0.30001,60.00000,1.100188e-005
1049.00000,205.68245,1.126219e-002,0.29997,60.00000,1.100231e-005
1050.00000,205.87956,1.127318e-002,0.29999,60.00000,1.100235e-005
1051.00000,206.07777,1.128467e-002,0.29997,60.00000,1.100275e-005
1052.00000,206.27711,1.129591e-002,0.29999,60.00000,1.100298e-005
1053.00000,206.47726,1.130700e-002,0.30003,60.00000,1.100312e-005
1054.00000,206.67777,1.131820e-002,0.29999,60.00000,1.100327e-005
1055.00000,206.87866,1.132904e-002,0.30000,60.00000,1.100309e-005
1056.00000,207.08029,1.134008e-002,0.29997,60.00000,1.100318e-005
1057.00000,207.28302,1.135102e-002,0.30003,60.00000,1.100315e-005
1058.00000,207.48640,1.136230e-002,0.30000,60.00000,1.100333e-005
1059.00000,207.69044,1.137320e-002,0.30002,60.00000,1.100330e-005
1060.00000,207.89495,1.138398e-002,0.30002,60.00000,1.100306e-005
1061.00000,208.09962,1.139489e-002,0.29999,60.00000,1.100303e-005
1062.00000,208.30445,1.140535e-002,0.30019,60.00000,1.100245e-005
1063.00000,208.50915,1.141680e-002,0.30002,60.00000,1.100284e-005
1064.00000,208.71364,1.142776e-002,0.30001,60.00000,1.100288e-005
1065.00000,208.91723,1.143790e-002,0.30003,60.00000,1.100203e-005
1066.00000,209.11887,1.144893e-002,0.30003,60.00000,1.100204e-005
1067.00000,209.31918,1.145981e-002,0.30002,60.00000,1.100193e-005
1068.00000,209.51978,1.147026e-002,0.29998,60.00000,1.100135e-005
1069.00000,209.71985,1.148104e-002,0.30000,60.00000,1.100121e-005
1070.00000,209.91901,1.149205e-002,0.30001,60.00000,1.100114e-005
1071.00000,210.11851,1.150262e-002,0.29999,60.00000,1.100072e-005
1072.00000,210.31980,1.151324e-002,0.29999,60.00000,1.100040e-005
1073.00000,210.52225,1.152421e-002,0.30000,60.00000,1.100037e-005
1074.00000,210.72514,1.153441e-002,0.30003,60.00000,1.099961e-005
1075.00000,210.92803,1.154476e-002,0.30001,60.00000,1.099902e-005
1076.00000,211.12886,1.155526e-002,0.30003,60.00000,1.099854e-005
1077.00000,211.32703,1.156540e-002,0.30003,60.00000,1.099772e-005
1078.00000,211.52450,1.157659e-002,0.29999,60.00000,1.099785e-005
1079.00000,211.72200,1.158744e-002,0.30004,60.00000,1.099772e-005
1080.00000,211.91970,1.159840e-002,0.30000,60.00000,1.099771e-005
1081.00000,212.11795,1.160932e-002,0.30000,60.00000,1.099759e-005
1082.00000,212.31652,1.162014e-002,0.29998,60.00000,1.099744e-005
1083.00000,212.51486,1.163092e-002,0.30000,60.00000,1.099722e-005
1084.00000,212.71317,1.164152e-002,0.30002,60.00000,1.099682e-005
1085.00000,212.91103,1.165248e-002,0.29999,60.00000,1.099687e-005
1086.00000,213.10809,1.166343e-002,0.29999,60.00000,1.099677e-005
1087.00000,213.30439,1.167387e-002,0.30000,60.00000,1.099632e-005
1088.00000,213.49962,1.168506e-002,0.30004,60.00000,1.099646e-005
1089.00000,213.69429,1.169626e-002,0.29998,60.00000,1.099662e-005
1090.00000,213.88970,1.170737e-002,0.30001,60.00000,1.099677e-005
1091.00000,214.08579,1.171876e-002,0.30003,60.00000,1.099708e-005
1092.00000,214.28215,1.172965e-002,0.30000,60.00000,1.099700e-005
1093.00000,214.47904,1.174093e-002,0.30001,60.00000,1.099730e-005
1094.00000,214.67622,1.175188e-002,0.30004,60.00000,1.099722e-005
1095.00000,214.87340,1.176269e-002,0.30002,60.00000,1.099707e-005
1096.00000,215.07041,1.177357e-002,0.30002,60.00000,1.099698e-005
1097.00000,215.26738,1.178425e-002,0.30000,60.00000,1.099669e-005
1098.00000,215.46465,1.179529e-002,0.30000,60.00000,1.099672e-005
1099.00000,215.66180,1.180596e-002,0.30002,60.00000,1.099639e-005
1100.00000,215.85852,1.181705e-002,0.30000,60.00000,1.099647e-005
1101.00000,216.05460,1.182796e-002,0.29998,60.00000,1.099642e-005
1102.00000,216.24970,1.183907e-002,0.30000,60.00000,1.099651e-005
1103.00000,216.44443,1.184961e-002,0.30000,60.00000,1.099608e-005
1104.00000,216.64012,1.186096e-002,0.30002,60.00000,1.099643e-005
1105.00000,216.83689,1.187239e-002,0.30004,60.00000,1.099681e-005
1106.00000,217.03425,1.188337e-002,0.29999,60.00000,1.099677e-005
1107.00000,217.23271,1.189448e-002,0.30002,60.00000,1.099685e-005
1108.00000,217.43259,1.190513e-002,0.30000,60.00000,1.099654e-005
1109.00000,217.63355,1.191592e-002,0.30000,60.00000,1.099640e-005
1110.00000,217.83501,1.192627e-002,0.29999,60.00000,1.099577e-005
1111.00000,218.03649,1.193684e-002,0.30000,60.00000,1.099538e-005
1112.00000,218.23725,1.194710e-002,0.29999,60.00000,1.099470e-005
1113.00000,218.43790,1.195751e-002,0.30005,60.00000,1.099417e-005
1114.00000,218.63903,1.196852e-002,0.30004,60.00000,1.099421e-005
1115.00000,218.84029,1.197958e-002,0.29996,60.00000,1.099424e-005
1116.00000,219.04173,1.199019e-002,0.29997,60.00000,1.099390e-005
1117.00000,219.24329,1.200078e-002,0.29998,60.00000,1.099352e-005
1118.00000,219.44362,1.201203e-002,0.30003,60.00000,1.099376e-005
1119.00000,219.64380,1.202326e-002,0.29998,60.00000,1.099394e-005
1120.00000,219.84590,1.203407e-002,0.30002,60.00000,1.099383e-005
1121.00000,220.04921,1.204484e-002,0.30003,60.00000,1.099360e-005
1122.00000,220.25261,1.205558e-002,0.30001,60.00000,1.099337e-005
1123.00000,220.45529,1.206643e-002,0.30003,60.00000,1.099325e-005
1124.00000,220.65593,1.207707e-002,0.30000,60.00000,1.099295e-005
1125.00000,220.85494,1.208776e-002,0.29999,60.00000,1.099259e-005
1126.00000,221.05546,1.209821e-002,0.30005,60.00000,1.099214e-005
1127.00000,221.25779,1.210901e-002,0.29996,60.00000,1.099197e-005
1128.00000,221.45975,1.211964e-002,0.30001,60.00000,1.099165e-005
1129.00000,221.66088,1.213013e-002,0.30000,60.00000,1.099117e-005
1130.00000,221.86174,1.214050e-002,0.29998,60.00000,1.099066e-005
1131.00000,222.06248,1.215081e-002,0.30000,60.00000,1.099000e-005
1132.00000,222.26245,1.216142e-002,0.30003,60.00000,1.098965e-005
1133.00000,222.46148,1.217198e-002,0.30002,60.00000,1.098926e-005
1134.00000,222.65960,1.218292e-002,0.30000,60.00000,1.098924e-005
1135.00000,222.85676,1.219364e-002,0.30001,60.00000,1.098898e-005
1136.00000,223.05349,1.220432e-002,0.30003,60.00000,1.098867e-005
1137.00000,223.25035,1.221504e-002,0.30000,60.00000,1.098848e-005
1138.00000,223.44726,1.222629e-002,0.30003,60.00000,1.098865e-005
1139.00000,223.64467,1.223778e-002,0.30001,60.00000,1.098911e-005
1140.00000,223.84291,1.224904e-002,0.29999,60.00000,1.098938e-005
1141.00000,224.04163,1.226001e-002,0.29997,60.00000,1.098937e-005
1142.00000,224.24252,1.227139e-002,0.29999,60.00000,1.098974e-005
1143.00000,224.44440,1.228207e-002,0.30002,60.00000,1.098950e-005
1144.00000,224.64380,1.229211e-002,0.30003,60.00000,1.098862e-005
1145.00000,224.84132,1.230292e-002,0.29997,60.00000,1.098840e-005
1146.00000,225.03843,1.231320e-002,0.30003,60.00000,1.098780e-005
1147.00000,225.23537,1.232402e-002,0.29999,60.00000,1.098765e-005
1148.00000,225.43196,1.233474e-002,0.30001,60.00000,1.098741e-005
1149.00000,225.62819,1.234560e-002,0.29999,60.00000,1.098733e-005
1150.00000,225.82443,1.235622e-002,0.29998,60.00000,1.098695e-005
1151.00000,226.02030,1.236683e-002,0.30001,60.00000,1.098664e-005
1152.00000,226.21663,1.237741e-002,0.30000,60.00000,1.098621e-005
1153.00000,226.41442,1.238831e-002,0.30001,60.00000,1.098616e-005
1154.00000,226.61332,1.239912e-002,0.29997,60.00000,1.098599e-005
1155.00000,226.81289,1.241040e-002,0.30001,60.00000,1.098628e-005
1156.00000,227.01328,1.242118e-002,0.30001,60.00000,1.098606e-005
1157.00000,227.21330,1.243203e-002,0.30000,60.00000,1.098599e-005
1158.00000,227.41286,1.244238e-002,0.29998,60.00000,1.098544e-005
1159.00000,227.61193,1.245314e-002,0.30001,60.00000,1.098526e-005
1160.00000,227.81058,1.246346e-002,0.29998,60.00000,1.098458e-005
1161.00000,228.01077,1.247424e-002,0.30003,60.00000,1.098446e-005
1162.00000,228.21003,1.248483e-002,0.30002,60.00000,1.098416e-005
1163.00000,228.40634,1.249474e-002,0.29999,60.00000,1.098313e-005
1164.00000,228.60273,1.250590e-002,0.29997,60.00000,1.098327e-005
1165.00000,228.79982,1.251650e-002,0.29982,60.00000,1.098299e-005
1166.00000,228.99794,1.252749e-002,0.30002,60.00000,1.098299e-005
1167.00000,229.19758,1.253874e-002,0.30001,60.00000,1.098323e-005
1168.00000,229.39963,1.255048e-002,0.29999,60.00000,1.098383e-005
1169.00000,229.60407,1.256155e-002,0.29999,60.00000,1.098399e-005
1170.00000,229.81027,1.257208e-002,0.30001,60.00000,1.098348e-005
1171.00000,230.02019,1.258331e-002,0.29997,60.00000,1.098382e-005
1172.00000,230.23079,1.259395e-002,0.29995,60.00000,1.098347e-005
1173.00000,230.43839,1.260425e-002,0.29998,60.00000,1.098290e-005
1174.00000,230.64359,1.261441e-002,0.30000,60.00000,1.098221e-005
1175.00000,230.84691,1.262475e-002,0.29998,60.00000,1.098161e-005
1176.00000,231.04835,1.263506e-002,0.29999,60.00000,1.098100e-005
1177.00000,231.24854,1.264594e-002,0.30005,60.00000,1.098091e-005
1178.00000,231.44907,1.265654e-002,0.30000,60.00000,1.098056e-005
1179.00000,231.65090,1.266738e-002,0.29999,60.00000,1.098044e-005
1180.00000,231.85311,1.267771e-002,0.30001,60.00000,1.097992e-005
1181.00000,232.05459,1.268779e-002,0.30000,60.00000,1.097913e-005
1182.00000,232.25586,1.269823e-002,0.30003,60.00000,1.097865e-005
1183.00000,232.45719,1.270893e-002,0.29998,60.00000,1.097843e-005
1184.00000,232.65820,1.271931e-002,0.30002,60.00000,1.097789e-005
1185.00000,232.85839,1.273009e-002,0.30005,60.00000,1.097773e-005
1186.00000,233.05819,1.274048e-002,0.30002,60.00000,1.097719e-005
1187.00000,233.25752,1.275096e-002,0.30001,60.00000,1.097679e-005
1188.00000,233.45551,1.276088e-002,0.30007,60.00000,1.097585e-005
1189.00000,233.65116,1.277091e-002,0.30001,60.00000,1.097511e-005
1190.00000,233.84524,1.278122e-002,0.29998,60.00000,1.097442e-005
1191.00000,234.04004,1.279165e-002,0.29998,60.00000,1.097399e-005
1192.00000,234.23689,1.280171e-002,0.30015,60.00000,1.097325e-005
1193.00000,234.43503,1.281259e-002,0.29998,60.00000,1.097310e-005
1194.00000,234.63410,1.282319e-002,0.30000,60.00000,1.097280e-005
1195.00000,234.83293,1.283366e-002,0.30003,60.00000,1.097244e-005
1196.00000,235.02932,1.284385e-002,0.30000,60.00000,1.097175e-005
1197.00000,235.22265,1.285445e-002,0.29997,60.00000,1.097140e-005
1198.00000,235.41545,1.286551e-002,0.30003,60.00000,1.097142e-005
1199.00000,235.61111,1.287662e-002,0.30002,60.00000,1.097155e-005
1200.00000,235.81053,1.288751e-002,0.29998,60.00000,1.097151e-005
1201.00000,236.01214,1.289795e-002,0.30000,60.00000,1.097111e-005
1202.00000,236.21525,1.290855e-002,0.30000,60.00000,1.097073e-005
1203.00000,236.41975,1.291933e-002,0.30002,60.00000,1.097064e-005
1204.00000,236.62137,1.292968e-002,0.29997,60.00000,1.097017e-005
1205.00000,236.81811,1.294019e-002,0.29997,60.00000,1.096969e-005
1206.00000,237.01365,1.295110e-002,0.29996,60.00000,1.096960e-005
1207.00000,237.20898,1.296178e-002,0.30001,60.00000,1.096947e-005
1208.00000,237.40512,1.297298e-002,0.30000,60.00000,1.096950e-005
1209.00000,237.60365,1.298436e-002,0.30000,60.00000,1.096991e-005
1210.00000,237.80275,1.299535e-002,0.29998,60.00000,1.096992e-005
1211.00000,237.99919,1.300591e-002,0.30003,60.00000,1.096966e-005
1212.00000,238.19079,1.301746e-002,0.29997,60.00000,1.097014e-005
1213.00000,238.37658,1.302875e-002,0.29999,60.00000,1.097034e-005
1214.00000,238.55862,1.303968e-002,0.30000,60.00000,1.097033e-005
1215.00000,238.73967,1.305128e-002,0.29998,60.00000,1.097079e-005
1216.00000,238.92451,1.306282e-002,0.29999,60.00000,1.097119e-005
1217.00000,239.11964,1.307463e-002,0.30002,60.00000,1.097195e-005
1218.00000,239.32661,1.308579e-002,0.29997,60.00000,1.097210e-005
1219.00000,239.54278,1.309620e-002,0.30012,60.00000,1.097166e-005
1220.00000,239.76432,1.310687e-002,0.29998,60.00000,1.097146e-005
1221.00000,239.98542,1.311682e-002,0.30002,60.00000,1.097063e-005
1222.00000,240.19929,1.312658e-002,0.29999,60.00000,1.096966e-005
1223.00000,240.40177,1.313627e-002,0.29999,60.00000,1.096863e-005
1224.00000,240.59217,1.314676e-002,0.30002,60.00000,1.096826e-005
1225.00000,240.77119,1.315785e-002,0.29997,60.00000,1.096833e-005
1226.00000,240.94207,1.316914e-002,0.30001,60.00000,1.096854e-005
1227.00000,241.10928,1.318091e-002,0.29998,60.00000,1.096913e-005
1228.00000,241.27646,1.319334e-002,0.29997,60.00000,1.097038e-005
1229.00000,241.44755,1.320575e-002,0.29996,60.00000,1.097151e-005
1230.00000,241.62498,1.321837e-002,0.30000,60.00000,1.097286e-005
1231.00000,241.81065,1.323003e-002,0.30000,60.00000,1.097344e-005
1232.00000,242.00737,1.324168e-002,0.30001,60.00000,1.097397e-005
1233.00000,242.21946,1.325259e-002,0.30002,60.00000,1.097394e-005
1234.00000,242.45072,1.326291e-002,0.30000,60.00000,1.097339e-005
1235.00000,242.69855,1.327153e-002,0.30001,60.00000,1.097154e-005
1236.00000,242.95147,1.327932e-002,0.30000,60.00000,1.096890e-005
1237.00000,243.20017,1.328680e-002,0.30001,60.00000,1.096605e-005
1238.00000,243.43889,1.329449e-002,0.30001,60.00000,1.096341e-005
1239.00000,243.66187,1.330264e-002,0.29998,60.00000,1.096107e-005
1240.00000,243.87113,1.331192e-002,0.30000,60.00000,1.095969e-005
1241.00000,244.07109,1.332184e-002,0.30001,60.00000,1.095876e-005
1242.00000,244.26396,1.333178e-002,0.30000,60.00000,1.095794e-005
1243.00000,244.45219,1.334145e-002,0.30002,60.00000,1.095685e-005
1244.00000,244.63820,1.335212e-002,0.30000,60.00000,1.095658e-005
1245.00000,244.82446,1.336307e-002,0.30000,60.00000,1.095655e-005
1246.00000,245.01340,1.337371e-002,0.29999,60.00000,1.095627e-005
1247.00000,245.20689,1.338434e-002,0.30004,60.00000,1.095600e-005
1248.00000,245.40543,1.339491e-002,0.30002,60.00000,1.095572e-005
1249.00000,245.60687,1.340514e-002,0.30000,60.00000,1.095515e-005
1250.00000,245.80971,1.341556e-002,0.29999,60.00000,1.095470e-005
1251.00000,246.01283,1.342582e-002,0.29998,60.00000,1.095415e-005
1252.00000,246.21218,1.343578e-002,0.30003,60.00000,1.095338e-005
1253.00000,246.40342,1.344553e-002,0.29997,60.00000,1.095243e-005
1254.00000,246.58352,1.345605e-002,0.29998,60.00000,1.095213e-005
1255.00000,246.75199,1.346655e-002,0.30002,60.00000,1.095175e-005
1256.00000,246.91146,1.347773e-002,0.30000,60.00000,1.095188e-005
1257.00000,247.06610,1.348927e-002,0.29999,60.00000,1.095228e-005
1258.00000,247.22010,1.350148e-002,0.30004,60.00000,1.095322e-005
1259.00000,247.37682,1.351348e-002,0.30004,60.00000,1.095408e-005
1260.00000,247.53947,1.352596e-002,0.29996,60.00000,1.095525e-005
1261.00000,247.71045,1.353768e-002,0.30003,60.00000,1.095589e-005
1262.00000,247.89162,1.354933e-002,0.29998,60.00000,1.095646e-005
1263.00000,248.08848,1.356014e-002,0.30004,60.00000,1.095627e-005
1264.00000,248.31300,1.357012e-002,0.30001,60.00000,1.095548e-005
1265.00000,248.57748,1.357846e-002,0.30001,60.00000,1.095346e-005
1266.00000,248.86971,1.358371e-002,0.30002,60.00000,1.094897e-005
1267.00000,249.14987,1.358813e-002,0.30001,60.00000,1.094380e-005
1268.00000,249.39614,1.359371e-002,0.30001,60.00000,1.093947e-005
1269.00000,249.61079,1.360059e-002,0.30001,60.00000,1.093627e-005
1270.00000,249.80102,1.360908e-002,0.29998,60.00000,1.093428e-005
1271.00000,249.97333,1.361825e-002,0.29997,60.00000,1.093281e-005
1272.00000,250.13345,1.362834e-002,0.30001,60.00000,1.093209e-005
1273.00000,250.28669,1.363920e-002,0.29999,60.00000,1.093192e-005
1274.00000,250.43759,1.365079e-002,0.30000,60.00000,1.093240e-005
1275.00000,250.58935,1.366201e-002,0.29999,60.00000,1.093263e-005
1276.00000,250.74477,1.367419e-002,0.30002,60.00000,1.093359e-005
1277.00000,250.90658,1.368595e-002,0.30000,60.00000,1.093424e-005
1278.00000,251.07773,1.369741e-002,0.30000,60.00000,1.093461e-005
1279.00000,251.26097,1.370853e-002,0.30001,60.00000,1.093477e-005
1280.00000,251.45932,1.371857e-002,0.30025,60.00000,1.093409e-005
1281.00000,251.67820,1.372742e-002,0.30002,60.00000,1.093233e-005
1282.00000,251.92680,1.373523e-002,0.29998,60.00000,1.092994e-005
1283.00000,252.20499,1.374127e-002,0.30000,60.00000,1.092610e-005
1284.00000,252.50140,1.374465e-002,0.29999,60.00000,1.092011e-005
1285.00000,252.78570,1.374884e-002,0.29998,60.00000,1.091485e-005
1286.00000,253.03932,1.375375e-002,0.29999,60.00000,1.091010e-005
1287.00000,253.26515,1.376024e-002,0.30000,60.00000,1.090667e-005
1288.00000,253.46548,1.376797e-002,0.29996,60.00000,1.090412e-005
1289.00000,253.64326,1.377658e-002,0.30000,60.00000,1.090233e-005
1290.00000,253.80467,1.378555e-002,0.29998,60.00000,1.090077e-005
1291.00000,253.95552,1.379622e-002,0.30002,60.00000,1.090048e-005
1292.00000,254.10151,1.380771e-002,0.29999,60.00000,1.090086e-005
1293.00000,254.24679,1.381940e-002,0.29999,60.00000,1.090144e-005
1294.00000,254.39470,1.383094e-002,0.29998,60.00000,1.090186e-005
1295.00000,254.54814,1.384239e-002,0.29997,60.00000,1.090228e-005
1296.00000,254.71038,1.385358e-002,0.30001,60.00000,1.090250e-005
1297.00000,254.88469,1.386401e-002,0.29998,60.00000,1.090212e-005
1298.00000,255.07497,1.387403e-002,0.30000,60.00000,1.090140e-005
1299.00000,255.28695,1.388210e-002,0.29999,60.00000,1.089916e-005
1300.00000,255.53044,1.388862e-002,0.29999,60.00000,1.089575e-005
1301.00000,255.81106,1.389321e-002,0.30002,60.00000,1.089086e-005
1302.00000,256.11867,1.389536e-002,0.30000,60.00000,1.088407e-005
1303.00000,256.42342,1.389723e-002,0.29999,60.00000,1.087708e-005
1304.00000,256.70031,1.390078e-002,0.30001,60.00000,1.087133e-005
1305.00000,256.94164,1.390535e-002,0.30000,60.00000,1.086652e-005
1306.00000,257.14639,1.391114e-002,0.30002,60.00000,1.086258e-005
1307.00000,257.32352,1.391957e-002,0.29994,60.00000,1.086065e-005
1308.00000,257.48248,1.392835e-002,0.30003,60.00000,1.085900e-005
1309.00000,257.63019,1.393890e-002,0.29999,60.00000,1.085865e-005
1310.00000,257.77179,1.395101e-002,0.30003,60.00000,1.085955e-005
1311.00000,257.91125,1.396214e-002,0.29999,60.00000,1.085971e-005
1312.00000,258.05162,1.397421e-002,0.30001,60.00000,1.086062e-005
1313.00000,258.19552,1.398578e-002,0.29999,60.00000,1.086108e-005
1314.00000,258.34556,1.399637e-002,0.29997,60.00000,1.086086e-005
1315.00000,258.50369,1.400690e-002,0.30003,60.00000,1.086062e-005
1316.00000,258.67173,1.401579e-002,0.30005,60.00000,1.085908e-005
1317.00000,258.85279,1.402504e-002,0.29995,60.00000,1.085780e-005
1318.00000,259.05257,1.403315e-002,0.30000,60.00000,1.085566e-005
1319.00000,259.27854,1.404060e-002,0.30002,60.00000,1.085305e-005
1320.00000,259.53579,1.404669e-002,0.30002,60.00000,1.084944e-005
1321.00000,259.81560,1.405161e-002,0.30004,60.00000,1.084495e-005
1322.00000,260.09280,1.405644e-002,0.30012,60.00000,1.084035e-005
1323.00000,260.35233,1.406118e-002,0.30007,60.00000,1.083559e-005
1324.00000,260.59167,1.406742e-002,0.30004,60.00000,1.083210e-005
1325.00000,260.80732,1.407392e-002,0.29987,60.00000,1.082883e-005
1326.00000,260.99600,1.408178e-002,0.29996,60.00000,1.082664e-005
1327.00000,261.16242,1.408952e-002,0.30001,60.00000,1.082420e-005
1328.00000,261.31447,1.409928e-002,0.29998,60.00000,1.082332e-005
1329.00000,261.45937,1.411019e-002,0.30001,60.00000,1.082324e-005
1330.00000,261.60200,1.412085e-002,0.30001,60.00000,1.082308e-005
1331.00000,261.74630,1.413244e-002,0.29998,60.00000,1.082356e-005
1332.00000,261.89508,1.414352e-002,0.30003,60.00000,1.082379e-005
1333.00000,262.05106,1.415430e-002,0.30000,60.00000,1.082372e-005
1334.00000,262.21599,1.416481e-002,0.30000,60.00000,1.082345e-005
1335.00000,262.39148,1.417384e-002,0.29999,60.00000,1.082213e-005
1336.00000,262.57822,1.418254e-002,0.30001,60.00000,1.082055e-005
1337.00000,262.77713,1.419011e-002,0.30001,60.00000,1.081802e-005
1338.00000,262.99157,1.419610e-002,0.29999,60.00000,1.081435e-005
1339.00000,263.22433,1.420155e-002,0.29999,60.00000,1.081025e-005
1340.00000,263.47453,1.420488e-002,0.29997,60.00000,1.080455e-005
1341.00000,263.74011,1.420786e-002,0.29999,60.00000,1.079864e-005
1342.00000,264.01594,1.420886e-002,0.29998,60.00000,1.079117e-005
1343.00000,264.29085,1.420927e-002,0.30002,60.00000,1.078333e-005
1344.00000,264.54660,1.421061e-002,0.29999,60.00000,1.077621e-005
1345.00000,264.77678,1.421234e-002,0.29998,60.00000,1.076936e-005
1346.00000,264.98189,1.421514e-002,0.30002,60.00000,1.076337e-005
1347.00000,265.16258,1.421974e-002,0.30003,60.00000,1.075870e-005
1348.00000,265.32452,1.422548e-002,0.29999,60.00000,1.075485e-005
1349.00000,265.47552,1.423258e-002,0.29999,60.00000,1.075200e-005
1350.00000,265.62182,1.424051e-002,0.30004,60.00000,1.074973e-005
1351.00000,265.76810,1.424827e-002,0.30002,60.00000,1.074744e-005
1352.00000,265.91748,1.425628e-002,0.30002,60.00000,1.074535e-005
1353.00000,266.07230,1.426338e-002,0.30001,60.00000,1.074257e-005
1354.00000,266.23538,1.427016e-002,0.29999,60.00000,1.073955e-005
1355.00000,266.40981,1.427562e-002,0.29999,60.00000,1.073558e-005
1356.00000,266.59740,1.427936e-002,0.29999,60.00000,1.073027e-005
1357.00000,266.80009,1.428204e-002,0.29999,60.00000,1.072431e-005
1358.00000,267.01758,1.428367e-002,0.30001,60.00000,1.071741e-005
1359.00000,267.24779,1.428391e-002,0.30001,60.00000,1.070958e-005
1360.00000,267.49035,1.428250e-002,0.30000,60.00000,1.070048e-005
1361.00000,267.74172,1.428039e-002,0.29998,60.00000,1.069087e-005
1362.00000,267.99819,1.427725e-002,0.30000,60.00000,1.068051e-005
1363.00000,268.25453,1.427460e-002,0.29998,60.00000,1.067053e-005
1364.00000,268.50251,1.427200e-002,0.29999,60.00000,1.066060e-005
1365.00000,268.73560,1.426968e-002,0.29997,60.00000,1.065088e-005
1366.00000,268.95241,1.426927e-002,0.30004,60.00000,1.064267e-005
1367.00000,269.15172,1.426995e-002,0.29996,60.00000,1.063524e-005
1368.00000,269.33467,1.427202e-002,0.29998,60.00000,1.062885e-005
1369.00000,269.50483,1.427447e-002,0.29998,60.00000,1.062272e-005
1370.00000,269.66634,1.427882e-002,0.30002,60.00000,1.061796e-005
1371.00000,269.82377,1.428378e-002,0.29997,60.00000,1.061368e-005
1372.00000,269.98050,1.428904e-002,0.29997,60.00000,1.060966e-005
1373.00000,270.13948,1.429436e-002,0.30000,60.00000,1.060570e-005
1374.00000,270.30321,1.429946e-002,0.29997,60.00000,1.060160e-005
1375.00000,270.47447,1.430381e-002,0.30001,60.00000,1.059690e-005
1376.00000,270.65401,1.430641e-002,0.30000,60.00000,1.059101e-005
1377.00000,270.84311,1.430922e-002,0.30000,60.00000,1.058520e-005
1378.00000,271.04283,1.431103e-002,0.29999,60.00000,1.057871e-005
1379.00000,271.25396,1.431192e-002,0.30000,60.00000,1.057154e-005
1380.00000,271.47330,1.431167e-002,0.30002,60.00000,1.056362e-005
1381.00000,271.69399,1.431151e-002,0.30002,60.00000,1.055560e-005
1382.00000,271.91691,1.431124e-002,0.29998,60.00000,1.054762e-005
1383.00000,272.14117,1.431048e-002,0.30003,60.00000,1.053932e-005
1384.00000,272.35986,1.431003e-002,0.30001,60.00000,1.053124e-005
1385.00000,272.56960,1.431025e-002,0.29999,60.00000,1.052364e-005
1386.00000,272.77137,1.431107e-002,0.30001,60.00000,1.051646e-005
1387.00000,272.96638,1.431149e-002,0.30001,60.00000,1.050901e-005
1388.00000,273.15521,1.431375e-002,0.29999,60.00000,1.050289e-005
1389.00000,273.33935,1.431623e-002,0.30002,60.00000,1.049703e-005
1390.00000,273.52079,1.431905e-002,0.30000,60.00000,1.049138e-005
1391.00000,273.70148,1.432176e-002,0.30000,60.00000,1.048563e-005
1392.00000,273.88289,1.432302e-002,0.29999,60.00000,1.047883e-005
1393.00000,274.06803,1.432564e-002,0.29999,60.00000,1.047302e-005
1394.00000,274.25899,1.432812e-002,0.29999,60.00000,1.046720e-005
1395.00000,274.45547,1.432918e-002,0.29998,60.00000,1.046028e-005
1396.00000,274.65646,1.432957e-002,0.29998,60.00000,1.045296e-005
1397.00000,274.86203,1.432885e-002,0.30000,60.00000,1.044476e-005
1398.00000,275.07126,1.432681e-002,0.30000,60.00000,1.043565e-005
1399.00000,275.28279,1.432520e-002,0.30004,60.00000,1.042685e-005
1400.00000,275.49489,1.432311e-002,0.29999,60.00000,1.041774e-005

